datacolumns 17
datarows 939
time	addmag_r	bicfemlh_r	gaslat_r	gasmed_r	gmax_r	gmed_r	gra_r	perlong_r	recfem_r	sar_r	semimem_r	sol_r	tfl_r	tibant_r	vaslat_r	vasmed_r
3.37	0.171734	0.014704	0.008288	0.031751	0.0224	0.043155	0.163184	0.026796	0.029226	0.065146	0.025393	0.009209	0.085747	0.182665	0.004447	0.003091
3.3705	0.169764	0.014642	0.008304	0.031948	0.02231	0.043109	0.160641	0.02669	0.028683	0.064257	0.025461	0.009204	0.084833	0.181916	0.004423	0.003068
3.371	0.167788	0.014579	0.00832	0.032141	0.022226	0.043058	0.158112	0.026585	0.028148	0.063372	0.025531	0.009199	0.083915	0.181152	0.0044	0.003045
3.3715	0.165807	0.014517	0.008336	0.032328	0.022149	0.043004	0.155597	0.026478	0.02762	0.062489	0.025604	0.009192	0.08299	0.180375	0.004376	0.003023
3.372	0.163821	0.014454	0.008351	0.032511	0.022079	0.042947	0.153098	0.026371	0.0271	0.061609	0.02568	0.009185	0.082061	0.179584	0.004352	0.003002
3.3725	0.161832	0.014393	0.008366	0.032689	0.022016	0.042885	0.150614	0.026264	0.026586	0.060732	0.025758	0.009177	0.081127	0.178779	0.004328	0.002982
3.373	0.159841	0.014331	0.00838	0.032861	0.02196	0.042819	0.148147	0.026156	0.02608	0.059858	0.02584	0.009168	0.080189	0.177963	0.004304	0.002962
3.3735	0.157848	0.01427	0.008393	0.033028	0.021911	0.042748	0.145697	0.026047	0.025581	0.058988	0.025924	0.009158	0.079246	0.177134	0.00428	0.002943
3.374	0.155856	0.01421	0.008407	0.033189	0.02187	0.042673	0.143264	0.025939	0.025089	0.058121	0.026012	0.009148	0.0783	0.176293	0.004255	0.002924
3.3745	0.153865	0.014151	0.00842	0.033344	0.021836	0.042593	0.14085	0.025829	0.024604	0.057257	0.026103	0.009136	0.077351	0.17544	0.004231	0.002907
3.375	0.151875	0.014093	0.008432	0.033493	0.02181	0.042509	0.138453	0.02572	0.024126	0.056398	0.026197	0.009124	0.076398	0.174576	0.004206	0.002889
3.3755	0.14989	0.014036	0.008444	0.033635	0.021792	0.04242	0.136076	0.02561	0.023654	0.055543	0.026296	0.009111	0.075442	0.173701	0.004181	0.002873
3.376	0.147908	0.013981	0.008455	0.033771	0.021782	0.042325	0.133718	0.025499	0.02319	0.054692	0.026398	0.009097	0.074484	0.172815	0.004157	0.002857
3.3765	0.145931	0.013927	0.008466	0.033899	0.021781	0.042225	0.131379	0.025388	0.022732	0.053845	0.026503	0.009083	0.073524	0.171918	0.004132	0.002842
3.377	0.143961	0.013874	0.008477	0.034021	0.021788	0.04212	0.129061	0.025277	0.022281	0.053004	0.026613	0.009067	0.072561	0.171011	0.004108	0.002827
3.3775	0.141999	0.013824	0.008487	0.034135	0.021804	0.042009	0.126762	0.025166	0.021837	0.052167	0.026727	0.009051	0.071597	0.170094	0.004083	0.002814
3.378	0.140045	0.013776	0.008496	0.034241	0.021829	0.041893	0.124485	0.025054	0.021399	0.051335	0.026845	0.009033	0.070631	0.169168	0.004059	0.0028
3.3785	0.1381	0.013729	0.008506	0.034339	0.021863	0.04177	0.122228	0.024942	0.020967	0.050508	0.026968	0.009015	0.069664	0.168232	0.004034	0.002788
3.379	0.136166	0.013685	0.008514	0.034429	0.021906	0.041642	0.119992	0.02483	0.020542	0.049686	0.027095	0.008996	0.068696	0.167288	0.00401	0.002776
3.3795	0.134243	0.013643	0.008522	0.034511	0.021959	0.041507	0.117778	0.024718	0.020123	0.048869	0.027226	0.008976	0.067728	0.166335	0.003986	0.002765
3.38	0.132333	0.013604	0.00853	0.034584	0.022021	0.041366	0.115586	0.024605	0.01971	0.048058	0.027362	0.008955	0.066759	0.165374	0.003961	0.002754
3.3805	0.130436	0.013568	0.008537	0.034649	0.022094	0.041218	0.113415	0.024493	0.019303	0.047252	0.027503	0.008933	0.065791	0.164405	0.003937	0.002744
3.381	0.128554	0.013534	0.008544	0.034705	0.022176	0.041065	0.111267	0.02438	0.018902	0.046452	0.027649	0.00891	0.064823	0.163429	0.003914	0.002735
3.3815	0.126687	0.013503	0.008549	0.034752	0.022268	0.040905	0.109142	0.024267	0.018507	0.045657	0.027799	0.008886	0.063857	0.162446	0.00389	0.002726
3.382	0.124836	0.013475	0.008555	0.03479	0.022371	0.040739	0.10704	0.024155	0.018117	0.044868	0.027954	0.008861	0.062891	0.161457	0.003867	0.002718
3.3825	0.123002	0.01345	0.00856	0.03482	0.022484	0.040566	0.10496	0.024042	0.017734	0.044085	0.028114	0.008835	0.061928	0.160462	0.003843	0.00271
3.383	0.121186	0.013429	0.008564	0.03484	0.022608	0.040388	0.102904	0.02393	0.017356	0.043308	0.028279	0.008808	0.060966	0.159461	0.00382	0.002703
3.3835	0.119389	0.013411	0.008567	0.034852	0.022742	0.040204	0.100871	0.023818	0.016983	0.042538	0.028448	0.00878	0.060007	0.158454	0.003797	0.002697
3.384	0.117612	0.013396	0.00857	0.034855	0.022888	0.040014	0.098862	0.023706	0.016616	0.041773	0.028623	0.008751	0.059051	0.157443	0.003775	0.002691
3.3845	0.115854	0.013385	0.008572	0.034849	0.023044	0.039819	0.096877	0.023595	0.016254	0.041015	0.028803	0.00872	0.058097	0.156427	0.003752	0.002686
3.385	0.114118	0.013378	0.008574	0.034834	0.023212	0.039618	0.094915	0.023484	0.015898	0.040263	0.028988	0.008689	0.057148	0.155406	0.00373	0.002681
3.3855	0.112404	0.013375	0.008574	0.034811	0.023391	0.039411	0.092978	0.023373	0.015547	0.039517	0.029178	0.008656	0.056202	0.154381	0.003709	0.002677
3.386	0.110712	0.013376	0.008574	0.03478	0.023582	0.039199	0.091065	0.023263	0.015202	0.038779	0.029373	0.008622	0.05526	0.153352	0.003687	0.002673
3.3865	0.109044	0.013381	0.008573	0.03474	0.023784	0.038981	0.089177	0.023153	0.014862	0.038047	0.029573	0.008588	0.054322	0.152318	0.003666	0.00267
3.387	0.1074	0.01339	0.008572	0.034693	0.023998	0.038759	0.087312	0.023043	0.014527	0.037322	0.029779	0.008552	0.053389	0.151281	0.003645	0.002668
3.3875	0.105781	0.013403	0.008569	0.034637	0.024224	0.038531	0.085473	0.022934	0.014197	0.036604	0.029989	0.008515	0.052461	0.150241	0.003625	0.002666
3.388	0.104188	0.013421	0.008566	0.034574	0.024462	0.038299	0.083658	0.022826	0.013872	0.035893	0.030205	0.008477	0.051539	0.149196	0.003604	0.002664
3.3885	0.10262	0.013443	0.008561	0.034503	0.024712	0.038062	0.081868	0.022717	0.013553	0.035189	0.030425	0.008438	0.050621	0.148149	0.003585	0.002663
3.389	0.10108	0.01347	0.008556	0.034425	0.024975	0.03782	0.080103	0.02261	0.013238	0.034493	0.030651	0.008397	0.04971	0.147097	0.003565	0.002662
3.3895	0.099567	0.013502	0.00855	0.034339	0.02525	0.037574	0.078362	0.022503	0.012928	0.033804	0.030881	0.008356	0.048804	0.146043	0.003546	0.002662
3.39	0.098082	0.013538	0.008543	0.034247	0.025538	0.037325	0.076647	0.022396	0.012624	0.033122	0.031117	0.008314	0.047905	0.144985	0.003527	0.002662
3.3905	0.096625	0.01358	0.008535	0.034148	0.025839	0.037071	0.074957	0.02229	0.012324	0.032447	0.031357	0.008271	0.047012	0.143924	0.003509	0.002663
3.391	0.095198	0.013626	0.008526	0.034042	0.026153	0.036814	0.073292	0.022184	0.012029	0.03178	0.031603	0.008227	0.046125	0.14286	0.003491	0.002664
3.3915	0.093801	0.013678	0.008516	0.03393	0.026479	0.036553	0.071652	0.022079	0.011739	0.03112	0.031853	0.008182	0.045246	0.141793	0.003473	0.002665
3.392	0.092433	0.013734	0.008505	0.033812	0.026819	0.03629	0.070037	0.021974	0.011453	0.030468	0.032108	0.008135	0.044373	0.140724	0.003456	0.002667
3.3925	0.091097	0.013796	0.008492	0.033688	0.027173	0.036023	0.068448	0.02187	0.011172	0.029824	0.032367	0.008088	0.043508	0.139652	0.00344	0.002669
3.393	0.089791	0.013863	0.008479	0.033558	0.02754	0.035754	0.066884	0.021766	0.010896	0.029187	0.032631	0.00804	0.042649	0.138577	0.003423	0.002671
3.3935	0.088517	0.013936	0.008465	0.033422	0.027921	0.035483	0.065346	0.021663	0.010624	0.028558	0.0329	0.007991	0.041799	0.137501	0.003408	0.002674
3.394	0.087275	0.014014	0.008449	0.033281	0.028315	0.035209	0.063833	0.02156	0.010358	0.027937	0.033173	0.007941	0.040956	0.136422	0.003392	0.002677
3.3945	0.086065	0.014097	0.008433	0.033134	0.028723	0.034932	0.062345	0.021458	0.010095	0.027324	0.03345	0.00789	0.04012	0.135341	0.003377	0.002681
3.395	0.084888	0.014186	0.008415	0.032982	0.029146	0.034654	0.060883	0.021356	0.009838	0.026719	0.033731	0.007838	0.039293	0.134259	0.003363	0.002685
3.3955	0.083744	0.014281	0.008396	0.032825	0.029582	0.034375	0.059447	0.021255	0.009584	0.026121	0.034016	0.007785	0.038474	0.133175	0.003349	0.002689
3.396	0.082634	0.014381	0.008376	0.032662	0.030033	0.034094	0.058037	0.021154	0.009336	0.025532	0.034306	0.007732	0.037663	0.132089	0.003335	0.002693
3.3965	0.081558	0.014487	0.008355	0.032495	0.030498	0.033811	0.056652	0.021054	0.009092	0.024951	0.034599	0.007677	0.036861	0.131003	0.003322	0.002697
3.397	0.080515	0.014599	0.008332	0.032323	0.030978	0.033528	0.055292	0.020954	0.008852	0.024378	0.034895	0.007622	0.036067	0.129916	0.003309	0.002702
3.3975	0.079507	0.014717	0.008308	0.032145	0.031472	0.033243	0.053959	0.020854	0.008617	0.023813	0.035195	0.007565	0.035282	0.128828	0.003297	0.002707
3.398	0.078533	0.01484	0.008284	0.031964	0.031981	0.032958	0.052651	0.020755	0.008387	0.023257	0.035499	0.007508	0.034506	0.12774	0.003285	0.002712
3.3985	0.077595	0.01497	0.008257	0.031777	0.032506	0.032673	0.051368	0.020657	0.008161	0.022709	0.035805	0.00745	0.033738	0.126652	0.003274	0.002718
3.399	0.076691	0.015105	0.00823	0.031586	0.033045	0.032387	0.050112	0.020558	0.007939	0.022169	0.036115	0.007391	0.03298	0.125565	0.003264	0.002724
3.3995	0.075823	0.015246	0.008201	0.03139	0.033599	0.032101	0.048881	0.02046	0.007722	0.021637	0.036427	0.007331	0.032231	0.124478	0.003253	0.00273
3.4	0.074991	0.015394	0.008172	0.03119	0.034168	0.031815	0.047675	0.020363	0.007509	0.021113	0.036743	0.007271	0.031491	0.123392	0.003244	0.002736
3.4005	0.074194	0.015547	0.008141	0.030985	0.034752	0.03153	0.046496	0.020266	0.0073	0.020598	0.03706	0.007209	0.030761	0.122307	0.003234	0.002742
3.401	0.073433	0.015707	0.008108	0.030776	0.035352	0.031244	0.045342	0.020169	0.007096	0.020091	0.03738	0.007147	0.03004	0.121223	0.003226	0.002749
3.4015	0.072707	0.015873	0.008075	0.030563	0.035968	0.03096	0.044213	0.020072	0.006897	0.019593	0.037702	0.007084	0.029329	0.120141	0.003218	0.002755
3.402	0.072018	0.016044	0.00804	0.030345	0.036598	0.030676	0.04311	0.019976	0.006701	0.019103	0.038026	0.00702	0.028628	0.11906	0.00321	0.002762
3.4025	0.071365	0.016222	0.008004	0.030124	0.037244	0.030394	0.042033	0.01988	0.00651	0.018621	0.038352	0.006955	0.027936	0.117981	0.003203	0.002769
3.403	0.070748	0.016406	0.007967	0.029898	0.037906	0.030112	0.04098	0.019785	0.006323	0.018147	0.03868	0.006889	0.027255	0.116903	0.003196	0.002776
3.4035	0.070168	0.016597	0.007929	0.029668	0.038584	0.029832	0.039954	0.01969	0.006141	0.017682	0.039009	0.006822	0.026583	0.115827	0.00319	0.002783
3.404	0.069624	0.016793	0.00789	0.029434	0.039277	0.029553	0.038952	0.019595	0.005962	0.017225	0.039339	0.006755	0.025921	0.114754	0.003184	0.002791
3.4045	0.069116	0.016996	0.007849	0.029195	0.039985	0.029277	0.037976	0.0195	0.005788	0.016776	0.03967	0.006687	0.025269	0.113682	0.003179	0.002798
3.405	0.068644	0.017205	0.007807	0.028953	0.04071	0.029002	0.037024	0.019406	0.005618	0.016336	0.040003	0.006617	0.024627	0.112613	0.003175	0.002805
3.4055	0.068209	0.01742	0.007764	0.028707	0.04145	0.028729	0.036098	0.019312	0.005452	0.015903	0.040335	0.006547	0.023995	0.111546	0.00317	0.002813
3.406	0.06781	0.017642	0.007719	0.028456	0.042206	0.028459	0.035196	0.019218	0.005291	0.015479	0.040669	0.006477	0.023373	0.110482	0.003167	0.00282
3.4065	0.067448	0.01787	0.007674	0.028202	0.042977	0.028192	0.034319	0.019124	0.005133	0.015063	0.041002	0.006405	0.022761	0.10942	0.003164	0.002828
3.407	0.067122	0.018104	0.007627	0.027943	0.043764	0.027927	0.033467	0.01903	0.00498	0.014656	0.041336	0.006332	0.022159	0.108361	0.003161	0.002836
3.4075	0.066832	0.018345	0.007578	0.02768	0.044567	0.027666	0.032639	0.018936	0.00483	0.014256	0.041669	0.006259	0.021568	0.107305	0.003159	0.002843
3.408	0.066578	0.018592	0.007529	0.027414	0.045385	0.027408	0.031835	0.018843	0.004685	0.013865	0.042003	0.006185	0.020986	0.106251	0.003157	0.002851
3.4085	0.06636	0.018846	0.007478	0.027143	0.046219	0.027153	0.031055	0.018749	0.004543	0.013482	0.042336	0.00611	0.020414	0.105201	0.003156	0.002858
3.409	0.066178	0.019106	0.007425	0.026868	0.047068	0.026901	0.030299	0.018656	0.004406	0.013106	0.042669	0.006034	0.019853	0.104153	0.003155	0.002866
3.4095	0.066032	0.019372	0.007372	0.026589	0.047932	0.026654	0.029567	0.018562	0.004272	0.012739	0.043001	0.005957	0.019301	0.103108	0.003154	0.002874
3.41	0.065922	0.019646	0.007317	0.026306	0.048812	0.02641	0.028858	0.018468	0.004143	0.01238	0.043332	0.00588	0.01876	0.102066	0.003155	0.002881
3.4105	0.065847	0.019925	0.007261	0.026019	0.049706	0.026171	0.028172	0.018375	0.004017	0.012029	0.043662	0.005801	0.018228	0.101028	0.003155	0.002889
3.411	0.065807	0.020211	0.007203	0.025728	0.050616	0.025935	0.02751	0.018281	0.003895	0.011685	0.043991	0.005722	0.017706	0.099992	0.003156	0.002896
3.4115	0.065803	0.020504	0.007144	0.025433	0.05154	0.025704	0.02687	0.018187	0.003777	0.01135	0.044319	0.005643	0.017195	0.098959	0.003157	0.002903
3.412	0.065833	0.020804	0.007083	0.025134	0.052479	0.025478	0.026254	0.018092	0.003662	0.011022	0.044646	0.005562	0.016693	0.09793	0.003159	0.00291
3.4125	0.065898	0.02111	0.007021	0.024832	0.053433	0.025256	0.025659	0.017998	0.003551	0.010701	0.044971	0.005481	0.016201	0.096903	0.003161	0.002917
3.413	0.065998	0.021424	0.006958	0.024525	0.054401	0.025039	0.025088	0.017903	0.003444	0.010389	0.045294	0.005398	0.015718	0.095879	0.003164	0.002924
3.4135	0.066132	0.021744	0.006893	0.024216	0.055383	0.024827	0.024538	0.017807	0.003341	0.010084	0.045616	0.005316	0.015245	0.094859	0.003167	0.002931
3.414	0.066299	0.02207	0.006826	0.023902	0.056379	0.02462	0.02401	0.017712	0.003241	0.009786	0.045935	0.005232	0.014782	0.093842	0.003171	0.002938
3.4145	0.066501	0.022404	0.006759	0.023586	0.057389	0.024418	0.023504	0.017615	0.003145	0.009496	0.046253	0.005148	0.014329	0.092827	0.003175	0.002944
3.415	0.066736	0.022745	0.00669	0.023266	0.058413	0.024222	0.02302	0.017519	0.003052	0.009214	0.046568	0.005063	0.013885	0.091816	0.003179	0.002951
3.4155	0.067004	0.023093	0.006619	0.022942	0.05945	0.024031	0.022557	0.017422	0.002963	0.008938	0.046881	0.004977	0.013451	0.090807	0.003184	0.002957
3.416	0.067304	0.023448	0.006547	0.022616	0.0605	0.023845	0.022116	0.017324	0.002877	0.00867	0.047191	0.004891	0.013025	0.089801	0.003189	0.002963
3.4165	0.067638	0.02381	0.006473	0.022287	0.061563	0.023665	0.021695	0.017225	0.002794	0.008409	0.047499	0.004804	0.01261	0.088798	0.003195	0.002969
3.417	0.068003	0.024179	0.006398	0.021954	0.062638	0.023491	0.021296	0.017126	0.002715	0.008155	0.047805	0.004716	0.012203	0.087797	0.003201	0.002974
3.4175	0.068401	0.024555	0.006322	0.021619	0.063726	0.023322	0.020917	0.017027	0.002639	0.007908	0.048108	0.004628	0.011806	0.086798	0.003208	0.00298
3.418	0.06883	0.024938	0.006244	0.02128	0.064826	0.023159	0.020558	0.016926	0.002567	0.007668	0.048408	0.004539	0.011417	0.085801	0.003215	0.002985
3.4185	0.069292	0.025329	0.006165	0.02094	0.065938	0.023003	0.020221	0.016825	0.002497	0.007434	0.048707	0.004449	0.011038	0.084806	0.003222	0.00299
3.419	0.069785	0.025726	0.006084	0.020596	0.067061	0.022852	0.019903	0.016722	0.002431	0.007207	0.049002	0.004359	0.010667	0.083814	0.00323	0.002994
3.4195	0.070309	0.026131	0.006002	0.020251	0.068196	0.022708	0.019605	0.016619	0.002368	0.006987	0.049295	0.004269	0.010305	0.082822	0.003238	0.002999
3.42	0.070864	0.026544	0.005919	0.019903	0.069341	0.02257	0.019327	0.016515	0.002308	0.006773	0.049586	0.004177	0.009952	0.081833	0.003247	0.003003
3.4205	0.071451	0.026963	0.005834	0.019553	0.070497	0.022438	0.019068	0.01641	0.002251	0.006566	0.049875	0.004085	0.009608	0.080846	0.003256	0.003007
3.421	0.072068	0.02739	0.005747	0.019201	0.071663	0.022312	0.018829	0.016304	0.002197	0.006365	0.050162	0.003993	0.009272	0.07986	0.003266	0.003011
3.4215	0.072717	0.027823	0.00566	0.018848	0.072839	0.022193	0.018609	0.016197	0.002146	0.00617	0.050446	0.0039	0.008945	0.078877	0.003276	0.003014
3.422	0.073395	0.028265	0.00557	0.018493	0.074024	0.022081	0.018409	0.016088	0.002098	0.005982	0.050728	0.003806	0.008625	0.077895	0.003286	0.003017
3.4225	0.074104	0.028713	0.00548	0.018136	0.075219	0.021975	0.018227	0.015979	0.002053	0.005799	0.051009	0.003712	0.008314	0.076915	0.003297	0.00302
3.423	0.074843	0.029169	0.005388	0.017779	0.076422	0.021876	0.018064	0.015868	0.00201	0.005623	0.051287	0.003617	0.008012	0.075937	0.003309	0.003023
3.4235	0.075612	0.029632	0.005295	0.01742	0.077633	0.021783	0.017919	0.015756	0.00197	0.005452	0.051564	0.003522	0.007717	0.074961	0.003321	0.003026
3.424	0.07641	0.030103	0.0052	0.017061	0.078852	0.021697	0.017792	0.015642	0.001933	0.005287	0.051838	0.003426	0.00743	0.073987	0.003333	0.003028
3.4245	0.077238	0.030581	0.005105	0.016702	0.080078	0.021618	0.017684	0.015528	0.001899	0.005128	0.052112	0.00333	0.007152	0.073014	0.003346	0.00303
3.425	0.078095	0.031066	0.005007	0.016342	0.081311	0.021546	0.017594	0.015412	0.001867	0.004974	0.052383	0.003233	0.00688	0.072043	0.00336	0.003031
3.4255	0.078982	0.031559	0.004909	0.015982	0.08255	0.02148	0.017522	0.015296	0.001838	0.004826	0.052654	0.003136	0.006617	0.071075	0.003374	0.003033
3.426	0.079897	0.03206	0.004809	0.015621	0.083795	0.021421	0.017467	0.015178	0.001811	0.004683	0.052923	0.003038	0.006361	0.070108	0.003388	0.003034
3.4265	0.080843	0.032568	0.004709	0.015262	0.085044	0.02137	0.01743	0.015059	0.001787	0.004545	0.053192	0.002939	0.006113	0.069143	0.003403	0.003034
3.427	0.081818	0.033083	0.004606	0.014903	0.086298	0.021325	0.01741	0.014939	0.001765	0.004413	0.053461	0.00284	0.005872	0.068181	0.003419	0.003035
3.4275	0.082823	0.033607	0.004503	0.014544	0.087556	0.021287	0.017407	0.014819	0.001746	0.004286	0.05373	0.002741	0.005639	0.067221	0.003435	0.003035
3.428	0.083858	0.034137	0.004399	0.014186	0.088817	0.021256	0.017421	0.014697	0.001729	0.004164	0.054001	0.002641	0.005413	0.066264	0.003451	0.003035
3.4285	0.084923	0.034676	0.004293	0.01383	0.090081	0.021232	0.017452	0.014575	0.001715	0.004046	0.054273	0.002541	0.005194	0.06531	0.003468	0.003035
3.429	0.086019	0.035223	0.004187	0.013475	0.091346	0.021215	0.017499	0.014451	0.001702	0.003934	0.054547	0.00244	0.004982	0.064359	0.003486	0.003034
3.4295	0.087145	0.035777	0.004079	0.013121	0.092613	0.021205	0.017563	0.014328	0.001692	0.003826	0.054825	0.002339	0.004777	0.063411	0.003504	0.003033
3.43	0.088303	0.036339	0.003971	0.012769	0.09388	0.021202	0.017644	0.014203	0.001684	0.003723	0.055106	0.002238	0.004579	0.062466	0.003523	0.003032
3.4305	0.089492	0.03691	0.003861	0.012419	0.095147	0.021206	0.01774	0.014079	0.001678	0.003625	0.055392	0.002136	0.004387	0.061525	0.003542	0.003031
3.431	0.090714	0.03749	0.00375	0.01207	0.096414	0.021216	0.017853	0.013954	0.001675	0.003531	0.055684	0.002033	0.004203	0.060588	0.003562	0.003029
3.4315	0.091967	0.038078	0.003639	0.011725	0.09768	0.021234	0.017981	0.013828	0.001673	0.003441	0.055983	0.001931	0.004025	0.059655	0.003583	0.003028
3.432	0.093254	0.038676	0.003526	0.011381	0.098944	0.021259	0.018125	0.013702	0.001673	0.003356	0.056291	0.001828	0.003853	0.058726	0.003605	0.003026
3.4325	0.094574	0.039283	0.003413	0.01104	0.100206	0.02129	0.018285	0.013576	0.001676	0.003275	0.056608	0.001725	0.003688	0.057801	0.003627	0.003024
3.433	0.095928	0.0399	0.003298	0.010702	0.101466	0.021329	0.01846	0.01345	0.00168	0.003198	0.056937	0.001622	0.00353	0.056881	0.003649	0.003021
3.4335	0.097317	0.040527	0.003183	0.010367	0.102723	0.021374	0.01865	0.013323	0.001686	0.003125	0.057278	0.001518	0.003377	0.055965	0.003673	0.003019
3.434	0.098741	0.041164	0.003067	0.010036	0.103976	0.021426	0.018856	0.013197	0.001694	0.003057	0.057634	0.001415	0.003231	0.055053	0.003697	0.003016
3.4345	0.1002	0.041813	0.00295	0.009707	0.105226	0.021485	0.019076	0.01307	0.001704	0.002992	0.058004	0.001311	0.003091	0.054147	0.003722	0.003014
3.435	0.101697	0.042473	0.002832	0.009382	0.106471	0.02155	0.019312	0.012943	0.001716	0.002931	0.058392	0.001207	0.002956	0.053245	0.003748	0.003011
3.4355	0.103229	0.043145	0.002714	0.009061	0.107711	0.021623	0.019562	0.012817	0.001729	0.002874	0.058797	0.001103	0.002828	0.052348	0.003775	0.003008
3.436	0.1048	0.043829	0.002595	0.008743	0.108945	0.021702	0.019827	0.01269	0.001744	0.00282	0.059223	0.000999	0.002705	0.051456	0.003802	0.003005
3.4365	0.106408	0.044526	0.002476	0.00843	0.110173	0.021788	0.020107	0.012564	0.001761	0.00277	0.059669	0.000895	0.002588	0.05057	0.003831	0.003002
3.437	0.108055	0.045236	0.002355	0.008121	0.111395	0.02188	0.020401	0.012438	0.001779	0.002724	0.060138	0.000791	0.002476	0.049688	0.00386	0.003
3.4375	0.109741	0.045959	0.002234	0.007816	0.11261	0.021979	0.020709	0.012312	0.001799	0.002681	0.06063	0.000687	0.00237	0.048812	0.00389	0.002997
3.438	0.111466	0.046697	0.002113	0.007515	0.113817	0.022085	0.021031	0.012186	0.001821	0.002642	0.061148	0.000583	0.002269	0.047941	0.003921	0.002994
3.4385	0.113231	0.047449	0.001991	0.007219	0.115017	0.022197	0.021367	0.012061	0.001843	0.002606	0.061693	0.00048	0.002174	0.047075	0.003953	0.002991
3.439	0.115037	0.048215	0.001869	0.006928	0.116208	0.022315	0.021716	0.011936	0.001868	0.002574	0.062266	0.000376	0.002084	0.046215	0.003987	0.002988
3.4395	0.116883	0.048997	0.001746	0.006642	0.117392	0.02244	0.022079	0.011812	0.001893	0.002545	0.062869	0.000273	0.001998	0.04536	0.004021	0.002985
3.44	0.11877	0.049794	0.001623	0.006361	0.118566	0.022571	0.022456	0.011687	0.001921	0.002519	0.063503	0.00017	0.001918	0.044511	0.004056	0.002982
3.4405	0.120699	0.050608	0.0015	0.006085	0.119732	0.022709	0.022846	0.011563	0.001949	0.002496	0.064169	6.8e-05	0.001842	0.043667	0.004092	0.002979
3.441	0.12267	0.051437	0.001376	0.005814	0.120889	0.022852	0.023248	0.01144	0.001979	0.002476	0.064869	0	0.001772	0.042829	0.004129	0.002976
3.4415	0.124683	0.052284	0.001252	0.005549	0.122037	0.023002	0.023664	0.011317	0.00201	0.002459	0.065604	0	0.001706	0.041996	0.004168	0.002973
3.442	0.126738	0.053149	0.001128	0.00529	0.123176	0.023158	0.024092	0.011195	0.002042	0.002445	0.066376	0	0.001644	0.041169	0.004207	0.002971
3.4425	0.128835	0.054031	0.001003	0.005036	0.124305	0.023319	0.024532	0.011073	0.002075	0.002434	0.067186	0	0.001587	0.040349	0.004247	0.002968
3.443	0.130976	0.054932	0.000879	0.004789	0.125424	0.023487	0.024985	0.010952	0.002109	0.002426	0.068035	0	0.001534	0.039534	0.004289	0.002965
3.4435	0.133159	0.055852	0.000754	0.004548	0.126533	0.02366	0.02545	0.010831	0.002145	0.00242	0.068925	0	0.001486	0.038725	0.004332	0.002963
3.444	0.135386	0.056792	0.00063	0.004313	0.127632	0.023839	0.025926	0.010711	0.002182	0.002417	0.069856	0	0.001441	0.037923	0.004375	0.002961
3.4445	0.137656	0.057751	0.000506	0.004084	0.128721	0.024024	0.026414	0.010592	0.002219	0.002417	0.070831	0	0.001401	0.037127	0.00442	0.002958
3.445	0.13997	0.058732	0.000381	0.003862	0.129798	0.024214	0.026914	0.010473	0.002258	0.00242	0.071849	0	0.001365	0.036338	0.004467	0.002956
3.4455	0.142326	0.059733	0.000257	0.003647	0.130865	0.024409	0.027425	0.010355	0.002297	0.002425	0.072914	0	0.001332	0.035555	0.004514	0.002954
3.446	0.144726	0.060756	0.000134	0.003438	0.13192	0.024609	0.027947	0.010238	0.002338	0.002432	0.074025	0	0.001303	0.034779	0.004563	0.002952
3.4465	0.14717	0.061802	1e-05	0.003237	0.132964	0.024815	0.028481	0.010121	0.002379	0.002442	0.075184	0	0.001278	0.034009	0.004613	0.002951
3.447	0.149656	0.062869	0	0.003043	0.133996	0.025025	0.029025	0.010006	0.002422	0.002454	0.076393	0	0.001256	0.033247	0.004664	0.002949
3.4475	0.152186	0.06396	0	0.002856	0.135016	0.02524	0.029579	0.009891	0.002465	0.002468	0.077651	0	0.001238	0.032491	0.004716	0.002948
3.448	0.154759	0.065075	0	0.002676	0.136023	0.02546	0.030145	0.009777	0.002509	0.002485	0.078961	0	0.001223	0.031742	0.00477	0.002946
3.4485	0.157374	0.066213	0	0.002505	0.137019	0.025685	0.03072	0.009664	0.002554	0.002504	0.080324	0	0.001212	0.031001	0.004825	0.002945
3.449	0.160032	0.067376	0	0.002341	0.138002	0.025913	0.031306	0.009552	0.002599	0.002525	0.08174	0	0.001203	0.030266	0.004881	0.002944
3.4495	0.162732	0.068563	0	0.002185	0.138973	0.026147	0.031902	0.009441	0.002646	0.002548	0.083211	0	0.001198	0.029539	0.004939	0.002943
3.45	0.165474	0.069775	0	0.002037	0.139932	0.026384	0.032509	0.009331	0.002693	0.002574	0.084738	0	0.001195	0.028819	0.004998	0.002943
3.4505	0.168257	0.071013	0	0.001897	0.140879	0.026625	0.033124	0.009222	0.002741	0.002601	0.086321	0	0.001196	0.028107	0.005058	0.002942
3.451	0.171082	0.072277	0	0.001766	0.141814	0.02687	0.03375	0.009114	0.002789	0.002631	0.087962	0	0.001199	0.027402	0.00512	0.002942
3.4515	0.173948	0.073566	0	0.001644	0.142737	0.027119	0.034385	0.009007	0.002839	0.002662	0.089662	0	0.001205	0.026705	0.005183	0.002942
3.452	0.176855	0.074883	0	0.00153	0.143648	0.027371	0.035029	0.008902	0.002889	0.002695	0.091422	0	0.001214	0.026015	0.005247	0.002942
3.4525	0.179802	0.076225	0	0.001425	0.144547	0.027627	0.035682	0.008797	0.002939	0.00273	0.093242	0	0.001225	0.025333	0.005313	0.002942
3.453	0.182788	0.077595	0	0.001329	0.145435	0.027887	0.036344	0.008693	0.002991	0.002767	0.095124	0	0.001239	0.024659	0.00538	0.002942
3.4535	0.185813	0.078993	0	0.001242	0.14631	0.028149	0.037015	0.008591	0.003043	0.002806	0.097069	0	0.001255	0.023993	0.005448	0.002942
3.454	0.188878	0.080417	0	0.001165	0.147174	0.028414	0.037694	0.00849	0.003095	0.002846	0.099077	0	0.001273	0.023335	0.005518	0.002943
3.4545	0.19198	0.08187	0	0.001097	0.148026	0.028682	0.038381	0.00839	0.003148	0.002888	0.101149	0	0.001293	0.022686	0.00559	0.002944
3.455	0.19512	0.08335	0	0.001039	0.148867	0.028953	0.039077	0.008291	0.003202	0.002932	0.103286	0	0.001315	0.022045	0.005662	0.002945
3.4555	0.198296	0.084858	0	0.000991	0.149695	0.029226	0.03978	0.008193	0.003256	0.002977	0.105488	0	0.00134	0.021412	0.005736	0.002946
3.456	0.201509	0.086394	0	0.000953	0.150512	0.029502	0.040491	0.008097	0.003311	0.003024	0.107758	0	0.001366	0.020788	0.005812	0.002947
3.4565	0.204757	0.087959	0	0.000925	0.151316	0.02978	0.041209	0.008002	0.003366	0.003072	0.110094	0	0.001394	0.020172	0.005889	0.002948
3.457	0.20804	0.089552	0	0.000908	0.152109	0.030061	0.041935	0.007909	0.003421	0.003122	0.112499	0	0.001424	0.019566	0.005967	0.00295
3.4575	0.211357	0.091173	0	0.000901	0.152889	0.030343	0.042667	0.007816	0.003477	0.003173	0.114972	0	0.001455	0.018968	0.006047	0.002951
3.458	0.214706	0.092823	0	0.000906	0.153656	0.030628	0.043406	0.007726	0.003533	0.003225	0.117515	0	0.001488	0.01838	0.006128	0.002953
3.4585	0.218088	0.094501	0	0.000921	0.154411	0.030914	0.044152	0.007636	0.00359	0.003279	0.120128	0	0.001523	0.017801	0.00621	0.002955
3.459	0.221501	0.096208	0	0.000947	0.155154	0.031202	0.044903	0.007548	0.003647	0.003334	0.122811	0	0.001559	0.017231	0.006294	0.002957
3.4595	0.224945	0.097944	0	0.000985	0.155884	0.031492	0.045661	0.007462	0.003704	0.00339	0.125565	0	0.001596	0.016672	0.006379	0.00296
3.46	0.228418	0.099707	0	0.001034	0.156601	0.031783	0.046425	0.007377	0.003762	0.003447	0.128391	0	0.001635	0.016122	0.006466	0.002962
3.4605	0.23192	0.1015	0	0.001095	0.157307	0.032075	0.047195	0.007294	0.003819	0.003506	0.13129	0	0.001675	0.015582	0.006554	0.002964
3.461	0.23545	0.10332	0	0.001167	0.158	0.032369	0.04797	0.007213	0.003877	0.003565	0.134261	0	0.001716	0.015052	0.006643	0.002967
3.4615	0.239008	0.10517	0	0.001252	0.158681	0.032664	0.048751	0.007133	0.003935	0.003626	0.137306	0	0.001758	0.014532	0.006733	0.00297
3.462	0.242592	0.107047	0	0.001349	0.15935	0.032961	0.049536	0.007055	0.003994	0.003687	0.140425	0	0.001801	0.014023	0.006825	0.002973
3.4625	0.246201	0.108953	0	0.001459	0.160007	0.033257	0.050327	0.006978	0.004052	0.00375	0.143618	0	0.001846	0.013525	0.006918	0.002976
3.463	0.249835	0.110887	0	0.001581	0.160653	0.033555	0.051123	0.006904	0.004111	0.003813	0.146886	0	0.001891	0.013037	0.007013	0.002979
3.4635	0.253493	0.112849	0	0.001716	0.161288	0.033854	0.051923	0.006831	0.004169	0.003877	0.150228	0	0.001937	0.01256	0.007108	0.002982
3.464	0.257174	0.114839	0	0.001864	0.161912	0.034153	0.052728	0.00676	0.004228	0.003943	0.153647	0	0.001984	0.012095	0.007205	0.002985
3.4645	0.260877	0.116857	0	0.002025	0.162525	0.034452	0.053538	0.006691	0.004287	0.004009	0.15714	0	0.002032	0.01164	0.007303	0.002989
3.465	0.264602	0.118903	0	0.0022	0.163127	0.034752	0.054352	0.006624	0.004346	0.004075	0.16071	0	0.002081	0.011197	0.007402	0.002992
3.4655	0.268346	0.120976	0	0.002388	0.163718	0.035053	0.05517	0.006559	0.004404	0.004143	0.164357	0	0.00213	0.010765	0.007503	0.002996
3.466	0.272109	0.123077	0	0.00259	0.164298	0.035354	0.055992	0.006496	0.004463	0.004211	0.168079	0	0.00218	0.010345	0.007604	0.003
3.4665	0.27589	0.125205	0	0.002806	0.164867	0.035655	0.056818	0.006435	0.004522	0.00428	0.171879	0	0.00223	0.009936	0.007707	0.003003
3.467	0.279687	0.127361	0	0.003036	0.165426	0.035957	0.057647	0.006377	0.004581	0.00435	0.175755	0	0.002282	0.009539	0.007811	0.003007
3.4675	0.2835	0.129544	0	0.00328	0.165973	0.036259	0.05848	0.00632	0.004639	0.00442	0.179708	0	0.002333	0.009155	0.007916	0.003011
3.468	0.287326	0.131754	0	0.003539	0.16651	0.036561	0.059316	0.006266	0.004698	0.004491	0.183738	0	0.002386	0.008782	0.008022	0.003015
3.4685	0.291165	0.133992	0	0.003813	0.167034	0.036863	0.060155	0.006214	0.004756	0.004563	0.187845	0	0.002438	0.008422	0.008128	0.003018
3.469	0.295015	0.136256	0	0.004102	0.167547	0.037165	0.060997	0.006165	0.004815	0.004635	0.192028	0	0.002491	0.008074	0.008236	0.003022
3.4695	0.298875	0.138547	0	0.004406	0.168049	0.037467	0.061842	0.006118	0.004873	0.004707	0.196289	0	0.002545	0.007738	0.008345	0.003026
3.47	0.302743	0.140864	0	0.004725	0.168537	0.037769	0.06269	0.006073	0.004931	0.00478	0.200626	0	0.002599	0.007415	0.008455	0.00303
3.4705	0.306618	0.143208	0	0.005059	0.169014	0.038071	0.063541	0.00603	0.004988	0.004854	0.205039	0	0.002653	0.007105	0.008565	0.003033
3.471	0.310499	0.145579	0	0.00541	0.169477	0.038373	0.064395	0.005991	0.005046	0.004927	0.209529	0	0.002707	0.006808	0.008676	0.003037
3.4715	0.314384	0.147977	0	0.005776	0.169926	0.038674	0.065252	0.005954	0.005103	0.005001	0.214094	0	0.002762	0.006524	0.008789	0.003041
3.472	0.318272	0.150402	0	0.006158	0.170362	0.038975	0.066112	0.005919	0.00516	0.005076	0.218735	0	0.002817	0.006253	0.008901	0.003044
3.4725	0.322162	0.152853	0	0.006557	0.170783	0.039276	0.066975	0.005887	0.005217	0.005151	0.223451	0	0.002872	0.005995	0.009015	0.003048
3.473	0.326051	0.155331	0	0.006972	0.17119	0.039576	0.067841	0.005858	0.005274	0.005226	0.228242	0	0.002927	0.005751	0.009129	0.003051
3.4735	0.32994	0.157837	0	0.007404	0.171582	0.039876	0.06871	0.005831	0.00533	0.005301	0.233107	0	0.002982	0.00552	0.009245	0.003054
3.474	0.333826	0.160369	0	0.007852	0.171959	0.040175	0.069583	0.005807	0.005386	0.005376	0.238046	0	0.003037	0.005303	0.00936	0.003058
3.4745	0.337707	0.162928	0	0.008318	0.17232	0.040474	0.070459	0.005786	0.005442	0.005452	0.243058	0	0.003093	0.005099	0.009476	0.003061
3.475	0.341584	0.165513	0	0.008801	0.172667	0.040772	0.071339	0.005768	0.005498	0.005528	0.248142	0	0.003148	0.00491	0.009593	0.003064
3.4755	0.345454	0.168125	0	0.009301	0.172999	0.041069	0.072222	0.005753	0.005553	0.005604	0.253299	0	0.003203	0.004735	0.00971	0.003066
3.476	0.349315	0.170764	0	0.009819	0.173316	0.041366	0.073108	0.00574	0.005608	0.00568	0.258528	0	0.003258	0.004573	0.009828	0.003069
3.4765	0.353167	0.173428	0	0.010355	0.173618	0.041661	0.073998	0.005731	0.005662	0.005757	0.263828	0	0.003313	0.004427	0.009946	0.003071
3.477	0.357007	0.176119	0	0.010908	0.173905	0.041956	0.074892	0.005725	0.005716	0.005833	0.269198	0	0.003367	0.004295	0.010064	0.003074
3.4775	0.360835	0.178834	0	0.01148	0.174178	0.04225	0.075789	0.005721	0.00577	0.00591	0.274637	0	0.003422	0.004177	0.010183	0.003076
3.478	0.364648	0.181575	0	0.01207	0.174437	0.042543	0.07669	0.005721	0.005823	0.005986	0.280145	0	0.003476	0.004075	0.010302	0.003077
3.4785	0.368444	0.184341	0	0.012679	0.174681	0.042835	0.077594	0.005724	0.005876	0.006063	0.285722	0	0.00353	0.003988	0.010421	0.003079
3.479	0.372222	0.187131	0	0.013306	0.174911	0.043125	0.078503	0.005729	0.005928	0.00614	0.291364	0	0.003583	0.003916	0.01054	0.00308
3.4795	0.375979	0.189944	0	0.013952	0.175127	0.043414	0.079415	0.005738	0.00598	0.006217	0.297073	0	0.003636	0.003859	0.010659	0.003081
3.48	0.379714	0.19278	0	0.014617	0.175328	0.043702	0.080331	0.005751	0.006031	0.006294	0.302847	0	0.003689	0.003819	0.010779	0.003082
3.4805	0.383424	0.19564	0	0.015301	0.175516	0.043989	0.081251	0.005766	0.006082	0.006371	0.308684	0	0.003741	0.003794	0.010898	0.003083
3.481	0.387108	0.198521	0	0.016004	0.175689	0.044274	0.082176	0.005785	0.006133	0.006447	0.314584	0	0.003792	0.003786	0.011017	0.003083
3.4815	0.390763	0.201424	0	0.016727	0.175849	0.044557	0.083105	0.005807	0.006182	0.006524	0.320545	0	0.003843	0.003795	0.011136	0.003083
3.482	0.394388	0.204348	0	0.01747	0.175994	0.04484	0.084039	0.005832	0.006232	0.006601	0.326566	0.000119	0.003894	0.00382	0.011255	0.003083
3.4825	0.397981	0.207292	0	0.018232	0.176125	0.04512	0.084978	0.005861	0.00628	0.006677	0.332645	0.000363	0.003944	0.003863	0.011373	0.003082
3.483	0.401541	0.210256	0	0.019014	0.176243	0.0454	0.085922	0.005893	0.006328	0.006754	0.338781	0.000617	0.003993	0.003923	0.011491	0.003081
3.4835	0.405065	0.213239	0	0.019816	0.176348	0.045678	0.086871	0.005928	0.006375	0.00683	0.344973	0.000882	0.004041	0.004001	0.011609	0.00308
3.484	0.408553	0.216241	0	0.020638	0.176439	0.045954	0.087827	0.005967	0.006422	0.006907	0.351219	0.001157	0.004089	0.004097	0.011726	0.003079
3.4845	0.412003	0.219261	0	0.02148	0.176518	0.04623	0.088788	0.00601	0.006468	0.006983	0.357518	0.001443	0.004137	0.004212	0.011843	0.003077
3.485	0.415415	0.222298	0	0.022343	0.176585	0.046503	0.089755	0.006056	0.006513	0.007059	0.363868	0.001739	0.004183	0.004345	0.011959	0.003074
3.4855	0.418787	0.225352	0	0.023227	0.176639	0.046775	0.090729	0.006106	0.006558	0.007135	0.370269	0.002047	0.004229	0.004498	0.012074	0.003072
3.486	0.422119	0.228422	0	0.024131	0.176681	0.047046	0.091709	0.006159	0.006602	0.00721	0.376718	0.002366	0.004274	0.00467	0.012189	0.003069
3.4865	0.425411	0.231507	0	0.025056	0.176712	0.047314	0.092696	0.006216	0.006645	0.007286	0.383215	0.002697	0.004318	0.004863	0.012303	0.003065
3.487	0.428661	0.234607	0	0.026002	0.176731	0.047581	0.09369	0.006277	0.006688	0.007361	0.38976	0.003039	0.004362	0.005075	0.012416	0.003061
3.4875	0.431868	0.23772	0	0.026969	0.17674	0.047846	0.094692	0.006341	0.00673	0.007436	0.39635	0.003393	0.004405	0.005309	0.012528	0.003057
3.488	0.435031	0.240847	0.000103	0.027957	0.176738	0.048109	0.0957	0.006409	0.006771	0.007511	0.402984	0.00376	0.004446	0.005563	0.012639	0.003052
3.4885	0.438149	0.243986	0.00039	0.028966	0.176725	0.04837	0.096716	0.006481	0.006811	0.007586	0.409662	0.004138	0.004487	0.005839	0.01275	0.003047
3.489	0.441222	0.247137	0.000689	0.029997	0.176703	0.048629	0.097739	0.006557	0.006851	0.007661	0.416381	0.004529	0.004528	0.006136	0.012859	0.003042
3.4895	0.444247	0.250299	0.001	0.031049	0.17667	0.048886	0.098769	0.006637	0.00689	0.007735	0.423141	0.004933	0.004567	0.006456	0.012966	0.003036
3.49	0.447225	0.253471	0.001323	0.032123	0.176628	0.04914	0.099807	0.006721	0.006928	0.007809	0.429941	0.005349	0.004606	0.006798	0.013073	0.003029
3.4905	0.450154	0.256652	0.001658	0.033218	0.176577	0.049392	0.100853	0.006809	0.006965	0.007883	0.436778	0.005778	0.004643	0.007163	0.013178	0.003022
3.491	0.453033	0.259842	0.002006	0.034335	0.176516	0.049642	0.101907	0.006901	0.007001	0.007957	0.443652	0.006221	0.00468	0.007552	0.013282	0.003015
3.4915	0.455862	0.263041	0.002368	0.035474	0.176447	0.049888	0.102968	0.006998	0.007037	0.00803	0.450562	0.006677	0.004716	0.007964	0.013385	0.003007
3.492	0.458639	0.266246	0.002742	0.036635	0.176368	0.050132	0.104037	0.007098	0.007071	0.008104	0.457505	0.007146	0.00475	0.0084	0.013485	0.002999
3.4925	0.461364	0.269458	0.00313	0.037817	0.176281	0.050373	0.105114	0.007203	0.007105	0.008177	0.464481	0.007629	0.004784	0.008861	0.013584	0.00299
3.493	0.464036	0.272675	0.003531	0.039021	0.176185	0.050611	0.106199	0.007312	0.007138	0.008249	0.471487	0.008126	0.004817	0.009346	0.013682	0.002981
3.4935	0.466655	0.275897	0.003946	0.040247	0.176081	0.050846	0.107292	0.007425	0.00717	0.008322	0.478524	0.008637	0.00485	0.009857	0.013777	0.002972
3.494	0.469219	0.279123	0.004375	0.041495	0.175969	0.051077	0.108394	0.007543	0.007201	0.008395	0.485588	0.009163	0.004881	0.010392	0.013871	0.002961
3.4945	0.471729	0.282351	0.004819	0.042765	0.175848	0.051304	0.109503	0.007666	0.007231	0.008467	0.492678	0.009703	0.004911	0.010954	0.013963	0.002951
3.495	0.474184	0.28558	0.005276	0.044057	0.175719	0.051527	0.110621	0.007793	0.00726	0.008539	0.499793	0.010257	0.00494	0.011542	0.014053	0.00294
3.4955	0.476584	0.288809	0.005749	0.04537	0.175582	0.051746	0.111748	0.007925	0.007288	0.008611	0.50693	0.010826	0.004969	0.012157	0.01414	0.002928
3.496	0.478928	0.292038	0.006237	0.046705	0.175437	0.051961	0.112882	0.008061	0.007316	0.008683	0.514087	0.01141	0.004996	0.012798	0.014225	0.002916
3.4965	0.481216	0.295265	0.00674	0.048062	0.175285	0.052171	0.114025	0.008203	0.007342	0.008754	0.521263	0.012009	0.005023	0.013467	0.014308	0.002904
3.497	0.483448	0.298488	0.007258	0.04944	0.175126	0.052376	0.115176	0.008349	0.007367	0.008825	0.528454	0.012624	0.005048	0.014164	0.014389	0.002891
3.4975	0.485625	0.301708	0.007792	0.05084	0.17496	0.052576	0.116336	0.008501	0.00739	0.008897	0.535659	0.013254	0.005073	0.014888	0.014467	0.002877
3.498	0.487745	0.304921	0.008341	0.052261	0.174789	0.05277	0.117503	0.008658	0.007413	0.008968	0.542875	0.013899	0.005097	0.015641	0.014543	0.002863
3.4985	0.489809	0.308129	0.008907	0.053704	0.174611	0.052959	0.118679	0.00882	0.007435	0.009039	0.5501	0.014561	0.00512	0.016423	0.014616	0.002849
3.499	0.491818	0.311328	0.009489	0.055167	0.174429	0.053141	0.119862	0.008988	0.007456	0.00911	0.557332	0.015238	0.005142	0.017234	0.014686	0.002834
3.4995	0.49377	0.314519	0.010088	0.056652	0.174242	0.053317	0.121054	0.009162	0.007475	0.00918	0.564567	0.015931	0.005163	0.018074	0.014754	0.002818
3.5	0.495665	0.3177	0.010703	0.058158	0.174051	0.053486	0.122253	0.009341	0.007494	0.009251	0.571803	0.016641	0.005183	0.018945	0.01482	0.002803
3.5005	0.497504	0.32087	0.011335	0.059685	0.173856	0.053648	0.123461	0.009526	0.007511	0.009322	0.579038	0.017367	0.005202	0.019845	0.014882	0.002786
3.501	0.499285	0.324027	0.011985	0.061232	0.173659	0.053804	0.124675	0.009716	0.007528	0.009392	0.586267	0.018109	0.005221	0.020776	0.014943	0.002769
3.5015	0.501009	0.327172	0.012651	0.0628	0.17346	0.053952	0.125897	0.009913	0.007543	0.009462	0.593489	0.018868	0.005238	0.021738	0.015001	0.002752
3.502	0.502675	0.330301	0.013336	0.064389	0.17326	0.054093	0.127126	0.010116	0.007557	0.009533	0.600698	0.019644	0.005255	0.022731	0.015056	0.002734
3.5025	0.504285	0.333416	0.014038	0.065998	0.173058	0.054227	0.128362	0.010326	0.00757	0.009603	0.607893	0.020436	0.00527	0.023756	0.015109	0.002716
3.503	0.505837	0.336513	0.014758	0.067628	0.172856	0.054353	0.129604	0.010542	0.007582	0.009673	0.615068	0.021246	0.005285	0.024812	0.015159	0.002698
3.5035	0.507333	0.339592	0.015497	0.069278	0.172655	0.054472	0.130853	0.010764	0.007593	0.009744	0.622222	0.022073	0.005299	0.025901	0.015207	0.002679
3.504	0.508773	0.342651	0.016253	0.070948	0.172455	0.054584	0.132108	0.010993	0.007604	0.009814	0.629349	0.022917	0.005312	0.027022	0.015252	0.002659
3.5045	0.510158	0.34569	0.017029	0.072638	0.172256	0.054688	0.133368	0.011229	0.007613	0.009884	0.636447	0.023778	0.005324	0.028176	0.015295	0.002639
3.505	0.51149	0.348707	0.017823	0.074348	0.172059	0.054784	0.134634	0.011472	0.007621	0.009954	0.64351	0.024657	0.005335	0.029363	0.015336	0.002619
3.5055	0.51277	0.3517	0.018637	0.076078	0.171865	0.054873	0.135905	0.011722	0.007628	0.010025	0.650537	0.025554	0.005345	0.030583	0.015375	0.002599
3.506	0.513999	0.35467	0.019469	0.077829	0.171674	0.054954	0.13718	0.011979	0.007634	0.010095	0.657522	0.026468	0.005354	0.031838	0.015411	0.002578
3.5065	0.515178	0.357614	0.020321	0.079599	0.171487	0.055027	0.138459	0.012243	0.007639	0.010165	0.664464	0.027399	0.005363	0.033126	0.015445	0.002557
3.507	0.516309	0.360533	0.021192	0.081389	0.171304	0.055092	0.139742	0.012515	0.007643	0.010236	0.671358	0.028349	0.00537	0.034448	0.015477	0.002536
3.5075	0.517392	0.363424	0.022083	0.083199	0.171126	0.055149	0.141028	0.012795	0.007647	0.010306	0.678201	0.029316	0.005377	0.035804	0.015506	0.002514
3.508	0.518429	0.366286	0.022995	0.085028	0.170953	0.055198	0.142317	0.013082	0.00765	0.010377	0.684992	0.030302	0.005383	0.037196	0.015534	0.002493
3.5085	0.519421	0.36912	0.023926	0.086877	0.170787	0.055239	0.143608	0.013377	0.007651	0.010447	0.691728	0.031305	0.005388	0.038622	0.015561	0.002471
3.509	0.520368	0.371923	0.024877	0.088745	0.170629	0.055272	0.144902	0.01368	0.007652	0.010517	0.698406	0.032327	0.005393	0.040084	0.015585	0.00245
3.5095	0.521272	0.374694	0.025849	0.090632	0.170478	0.055298	0.146197	0.013991	0.007653	0.010588	0.705023	0.033367	0.005396	0.041581	0.015608	0.002428
3.51	0.522133	0.377433	0.026841	0.092537	0.170338	0.055317	0.147494	0.01431	0.007652	0.010658	0.711578	0.034424	0.005399	0.043114	0.01563	0.002407
3.5105	0.522953	0.380138	0.027853	0.094462	0.170207	0.05533	0.148791	0.014637	0.007652	0.010729	0.718068	0.0355	0.005401	0.044683	0.01565	0.002386
3.511	0.523732	0.382809	0.028887	0.096405	0.170089	0.055336	0.150089	0.014972	0.00765	0.010799	0.724491	0.036595	0.005402	0.046287	0.015669	0.002365
3.5115	0.524471	0.385444	0.029942	0.098365	0.169984	0.055336	0.151388	0.015317	0.007648	0.01087	0.730846	0.037707	0.005403	0.047928	0.015687	0.002344
3.512	0.525172	0.388042	0.031017	0.100344	0.169892	0.055331	0.152686	0.015669	0.007645	0.01094	0.737131	0.038838	0.005402	0.049605	0.015704	0.002324
3.5125	0.525835	0.390605	0.032114	0.10234	0.169817	0.055322	0.153985	0.01603	0.007642	0.011011	0.743344	0.039987	0.005401	0.051319	0.01572	0.002305
3.513	0.526461	0.393131	0.033231	0.104354	0.169757	0.055308	0.155283	0.0164	0.007639	0.011081	0.749486	0.041154	0.005399	0.05307	0.015735	0.002286
3.5135	0.52705	0.39562	0.034371	0.106385	0.169716	0.055291	0.156579	0.016779	0.007635	0.011151	0.755553	0.042339	0.005397	0.054857	0.01575	0.002268
3.514	0.527604	0.398072	0.035531	0.108432	0.169694	0.05527	0.157875	0.017167	0.007631	0.011221	0.761546	0.043543	0.005394	0.056681	0.015764	0.002251
3.5145	0.528124	0.400487	0.036714	0.110496	0.169691	0.055247	0.15917	0.017564	0.007626	0.011291	0.767463	0.044764	0.00539	0.058543	0.015777	0.002235
3.515	0.528609	0.402865	0.037918	0.112577	0.169709	0.055221	0.160462	0.01797	0.007621	0.01136	0.773303	0.046004	0.005385	0.060441	0.015791	0.00222
3.5155	0.529062	0.405207	0.039143	0.114674	0.169749	0.055193	0.161753	0.018386	0.007616	0.01143	0.779065	0.047261	0.005379	0.062376	0.015804	0.002206
3.516	0.529483	0.407514	0.040391	0.116786	0.169813	0.055164	0.16304	0.01881	0.007611	0.011499	0.78475	0.048537	0.005373	0.064349	0.015817	0.002194
3.5165	0.529873	0.409785	0.04166	0.118914	0.1699	0.055135	0.164326	0.019244	0.007605	0.011568	0.790358	0.04983	0.005367	0.066359	0.01583	0.002183
3.517	0.530232	0.412022	0.042951	0.121058	0.170011	0.055105	0.165607	0.019688	0.007599	0.011636	0.795888	0.051141	0.005359	0.068406	0.015843	0.002174
3.5175	0.530562	0.414225	0.044264	0.123216	0.170149	0.055076	0.166886	0.020141	0.007593	0.011704	0.801342	0.052469	0.005351	0.07049	0.015857	0.002166
3.518	0.530863	0.416396	0.0456	0.125389	0.170313	0.055048	0.16816	0.020604	0.007587	0.011772	0.806719	0.053815	0.005342	0.072611	0.015871	0.002161
3.5185	0.531137	0.418534	0.046957	0.127577	0.170505	0.055021	0.16943	0.021076	0.007581	0.011839	0.812022	0.055179	0.005333	0.07477	0.015886	0.002158
3.519	0.531385	0.420641	0.048337	0.129778	0.170725	0.054997	0.170696	0.021558	0.007575	0.011906	0.817251	0.056559	0.005323	0.076965	0.015901	0.002157
3.5195	0.531609	0.422716	0.049739	0.131993	0.170975	0.054975	0.171956	0.02205	0.007568	0.011973	0.822409	0.057957	0.005312	0.079198	0.015917	0.002159
3.52	0.531811	0.424761	0.051163	0.134221	0.171254	0.054957	0.173211	0.022552	0.007562	0.012039	0.827497	0.059372	0.005301	0.081467	0.015935	0.002163
3.5205	0.531991	0.426775	0.052609	0.136462	0.171565	0.054943	0.174461	0.023064	0.007555	0.012104	0.832518	0.060803	0.005289	0.083773	0.015953	0.00217
3.521	0.532153	0.42876	0.054078	0.138716	0.171907	0.054934	0.175705	0.023586	0.007549	0.012169	0.837472	0.062252	0.005276	0.086116	0.015972	0.00218
3.5215	0.532297	0.430715	0.05557	0.140982	0.172281	0.05493	0.176943	0.024117	0.007542	0.012234	0.842362	0.063716	0.005263	0.088495	0.015993	0.002193
3.522	0.532425	0.432641	0.057084	0.14326	0.172688	0.054931	0.178174	0.024659	0.007536	0.012298	0.847188	0.065197	0.00525	0.090911	0.016016	0.002209
3.5225	0.532539	0.434537	0.058621	0.14555	0.17313	0.054939	0.179399	0.025211	0.00753	0.012362	0.851952	0.066695	0.005235	0.093362	0.01604	0.002229
3.523	0.532641	0.436405	0.060181	0.147852	0.173605	0.054954	0.180617	0.025774	0.007524	0.012425	0.856655	0.068208	0.005221	0.09585	0.016067	0.002253
3.5235	0.532733	0.438242	0.061764	0.150166	0.174116	0.054977	0.181827	0.026346	0.007518	0.012487	0.861298	0.069737	0.005205	0.098373	0.016095	0.00228
3.524	0.532816	0.44005	0.06337	0.152493	0.174663	0.055007	0.183029	0.026929	0.007512	0.012549	0.86588	0.071282	0.005189	0.100932	0.016126	0.002311
3.5245	0.532891	0.441828	0.065	0.154832	0.175247	0.055047	0.184224	0.027523	0.007507	0.012611	0.870402	0.072842	0.005173	0.103525	0.016159	0.002347
3.525	0.53296	0.443576	0.066652	0.157184	0.175868	0.055096	0.18541	0.028127	0.007502	0.012672	0.874865	0.074417	0.005156	0.106153	0.016195	0.002386
3.5255	0.533024	0.445292	0.068328	0.159549	0.176527	0.055154	0.186587	0.028741	0.007497	0.012733	0.879269	0.076008	0.005139	0.108816	0.016234	0.002431
3.526	0.533085	0.446977	0.070027	0.161928	0.177224	0.055224	0.187755	0.029367	0.007493	0.012793	0.883612	0.077613	0.005121	0.111513	0.016276	0.00248
3.5265	0.533144	0.44863	0.07175	0.16432	0.177961	0.055305	0.188914	0.030002	0.007489	0.012852	0.887896	0.079233	0.005103	0.114243	0.016321	0.002535
3.527	0.533203	0.45025	0.073496	0.166727	0.178737	0.055397	0.190062	0.030649	0.007485	0.012912	0.892121	0.080868	0.005084	0.117007	0.016369	0.002594
3.5275	0.533263	0.451838	0.075266	0.169149	0.179554	0.055503	0.1912	0.031306	0.007482	0.012971	0.896286	0.082516	0.005065	0.119803	0.016421	0.002659
3.528	0.533326	0.453391	0.077059	0.171585	0.180411	0.055621	0.192327	0.031974	0.007479	0.013029	0.900392	0.084179	0.005045	0.122631	0.016477	0.00273
3.5285	0.533392	0.454911	0.078875	0.174037	0.181309	0.055753	0.193441	0.032653	0.007477	0.013087	0.904439	0.085855	0.005025	0.125491	0.016536	0.002807
3.529	0.533465	0.456396	0.080715	0.176505	0.18225	0.055899	0.194544	0.033342	0.007475	0.013145	0.908428	0.087545	0.005005	0.128382	0.016601	0.00289
3.5295	0.533544	0.457845	0.082578	0.178989	0.183232	0.056061	0.195633	0.034042	0.007474	0.013203	0.912358	0.089248	0.004984	0.131303	0.016669	0.002979
3.53	0.533632	0.45926	0.084465	0.181489	0.184257	0.056238	0.196709	0.034753	0.007473	0.01326	0.91623	0.090964	0.004962	0.134254	0.016743	0.003075
3.5305	0.533728	0.460638	0.086375	0.184007	0.185325	0.056432	0.197771	0.035475	0.007473	0.013316	0.920042	0.092692	0.004941	0.137234	0.016821	0.003178
3.531	0.533835	0.461979	0.088308	0.186542	0.186436	0.056643	0.198817	0.036207	0.007473	0.013373	0.923795	0.094433	0.004919	0.140243	0.016905	0.003287
3.5315	0.533952	0.463284	0.090264	0.189095	0.187591	0.056873	0.199849	0.036951	0.007474	0.013429	0.927488	0.096185	0.004896	0.143279	0.016995	0.003405
3.532	0.53408	0.464551	0.092243	0.191667	0.18879	0.057121	0.200864	0.037705	0.007475	0.013484	0.93112	0.097949	0.004873	0.146343	0.01709	0.00353
3.5325	0.53422	0.465779	0.094245	0.194258	0.190033	0.057389	0.201864	0.03847	0.007477	0.013539	0.93469	0.099725	0.00485	0.149432	0.017192	0.003663
3.533	0.534372	0.466968	0.09627	0.196869	0.19132	0.057678	0.202847	0.039246	0.00748	0.013594	0.938196	0.101512	0.004827	0.152548	0.017301	0.003805
3.5335	0.534537	0.468117	0.098317	0.199498	0.192651	0.057988	0.203814	0.040032	0.007483	0.013648	0.941638	0.103309	0.004803	0.155688	0.017416	0.003955
3.534	0.534715	0.469226	0.100387	0.202148	0.194027	0.058321	0.204765	0.04083	0.007486	0.013702	0.945014	0.105118	0.004779	0.158852	0.017539	0.004113
3.5345	0.534907	0.470295	0.102478	0.204818	0.195448	0.058677	0.205699	0.041638	0.007491	0.013756	0.948321	0.106937	0.004755	0.162039	0.01767	0.004281
3.535	0.535113	0.471323	0.104592	0.207508	0.196913	0.059057	0.206616	0.042458	0.007496	0.013809	0.951558	0.108766	0.004731	0.165248	0.017809	0.004459
3.5355	0.535333	0.472311	0.106727	0.210219	0.198422	0.059461	0.207517	0.043288	0.007501	0.013862	0.954725	0.110606	0.004706	0.168478	0.017957	0.004646
3.536	0.535568	0.473258	0.108883	0.21295	0.199976	0.059892	0.208401	0.044129	0.007507	0.013914	0.957819	0.112455	0.004682	0.171729	0.018114	0.004844
3.5365	0.535818	0.474166	0.11106	0.215702	0.201574	0.060348	0.209269	0.04498	0.007514	0.013966	0.96084	0.114315	0.004658	0.174999	0.018281	0.005051
3.537	0.536085	0.475035	0.113258	0.218475	0.203216	0.060832	0.210121	0.045843	0.007522	0.014018	0.963787	0.116185	0.004634	0.178288	0.018458	0.00527
3.5375	0.536368	0.475864	0.115476	0.221268	0.204902	0.061344	0.210956	0.046716	0.00753	0.014068	0.966659	0.118064	0.00461	0.181593	0.018645	0.005499
3.538	0.536669	0.476654	0.117715	0.224082	0.206631	0.061885	0.211774	0.0476	0.007539	0.014119	0.969457	0.119953	0.004587	0.184915	0.018843	0.00574
3.5385	0.536987	0.477406	0.119972	0.226916	0.208404	0.062455	0.212575	0.048494	0.007549	0.014169	0.97218	0.121851	0.004565	0.188251	0.019053	0.005992
3.539	0.537323	0.47812	0.122249	0.22977	0.210221	0.063056	0.21336	0.049399	0.007559	0.014218	0.974829	0.123758	0.004543	0.191602	0.019274	0.006257
3.5395	0.537676	0.478796	0.124544	0.232644	0.212082	0.063687	0.214128	0.050315	0.007571	0.014266	0.977405	0.125675	0.004521	0.194965	0.019508	0.006533
3.54	0.538048	0.479435	0.126857	0.235537	0.213985	0.06435	0.214878	0.051241	0.007583	0.014314	0.97991	0.1276	0.004501	0.19834	0.019754	0.006822
3.5405	0.538438	0.480036	0.129188	0.238449	0.215933	0.065046	0.215612	0.052177	0.007596	0.014361	0.982344	0.129534	0.004482	0.201726	0.020015	0.007124
3.541	0.538846	0.480602	0.131536	0.24138	0.217924	0.065775	0.216329	0.053124	0.00761	0.014408	0.984709	0.131476	0.004464	0.205121	0.020289	0.00744
3.5415	0.539271	0.481133	0.1339	0.244329	0.219958	0.066539	0.217029	0.054082	0.007625	0.014454	0.987005	0.133426	0.004447	0.208524	0.020578	0.007769
3.542	0.539714	0.481631	0.136281	0.247296	0.222036	0.067337	0.217711	0.055049	0.007642	0.014499	0.989234	0.135384	0.004432	0.211934	0.020882	0.008112
3.5425	0.540174	0.482095	0.138677	0.250281	0.224158	0.068171	0.218377	0.056027	0.007659	0.014543	0.991396	0.137349	0.004418	0.21535	0.021202	0.008469
3.543	0.540652	0.482529	0.141088	0.253282	0.226323	0.069042	0.219026	0.057016	0.007677	0.014587	0.993491	0.139322	0.004406	0.21877	0.021538	0.008841
3.5435	0.541145	0.482932	0.143514	0.256299	0.228531	0.069951	0.219658	0.058014	0.007696	0.014629	0.995522	0.141302	0.004396	0.222194	0.021891	0.009228
3.544	0.541655	0.483307	0.145954	0.259333	0.230782	0.070898	0.220273	0.059023	0.007717	0.014671	0.997489	0.143289	0.004388	0.225619	0.022262	0.00963
3.5445	0.54218	0.483653	0.148406	0.262381	0.233077	0.071884	0.22087	0.060043	0.007739	0.014712	0.999394	0.145284	0.004382	0.229044	0.022651	0.010048
3.545	0.542719	0.483972	0.150872	0.265444	0.235414	0.07291	0.221451	0.061072	0.007761	0.014751	1.001238	0.147287	0.004378	0.232468	0.023058	0.010483
3.5455	0.543273	0.484266	0.153349	0.268522	0.237793	0.073978	0.222014	0.062112	0.007786	0.01479	1.003022	0.149298	0.004376	0.235889	0.023486	0.010934
3.546	0.54384	0.484534	0.155838	0.271613	0.240215	0.075086	0.222559	0.063162	0.007811	0.014827	1.004749	0.151317	0.004377	0.239306	0.023933	0.011402
3.5465	0.544421	0.484779	0.158338	0.274717	0.242678	0.076238	0.223087	0.064222	0.007838	0.014863	1.006419	0.153344	0.004381	0.242717	0.024401	0.011887
3.547	0.545014	0.485001	0.160847	0.277834	0.245183	0.077433	0.223597	0.065293	0.007866	0.014898	1.008032	0.15538	0.004387	0.24612	0.024891	0.01239
3.5475	0.54562	0.485202	0.163366	0.280963	0.24773	0.078671	0.224089	0.066373	0.007895	0.014932	1.009591	0.157425	0.004396	0.249514	0.025403	0.012912
3.548	0.546237	0.485381	0.165893	0.284103	0.250317	0.079955	0.224562	0.067464	0.007926	0.014964	1.011095	0.159479	0.004408	0.252896	0.025939	0.013452
3.5485	0.546867	0.485541	0.168428	0.287254	0.252945	0.081284	0.225016	0.068566	0.007959	0.014995	1.012544	0.161543	0.004424	0.256267	0.026497	0.014011
3.549	0.547507	0.485683	0.170969	0.290416	0.255613	0.08266	0.22545	0.069677	0.007993	0.015024	1.013941	0.163616	0.004443	0.259622	0.02708	0.01459
3.5495	0.548159	0.485806	0.173517	0.293587	0.258319	0.084082	0.225865	0.070799	0.008028	0.015052	1.015284	0.165699	0.004465	0.262962	0.027688	0.015188
3.55	0.54882	0.485913	0.17607	0.296767	0.261064	0.085553	0.226259	0.071932	0.008065	0.015078	1.016575	0.167793	0.004491	0.266284	0.028322	0.015806
3.5505	0.54949	0.486004	0.178627	0.299956	0.263847	0.087071	0.226633	0.073074	0.008104	0.015102	1.017814	0.169898	0.004521	0.269585	0.028982	0.016445
3.551	0.550169	0.486079	0.181187	0.303153	0.266667	0.088639	0.226985	0.074227	0.008145	0.015124	1.019001	0.172013	0.004556	0.272866	0.029669	0.017105
3.5515	0.550855	0.486139	0.18375	0.306356	0.269523	0.090256	0.227315	0.07539	0.008187	0.015145	1.020136	0.17414	0.004594	0.276123	0.030384	0.017787
3.552	0.551547	0.486184	0.186315	0.309567	0.272413	0.091924	0.227623	0.076563	0.008232	0.015163	1.02122	0.176279	0.004637	0.279355	0.031127	0.01849
3.5525	0.552245	0.486216	0.188881	0.312784	0.275338	0.093642	0.227908	0.077746	0.008278	0.01518	1.022252	0.17843	0.004685	0.282559	0.031899	0.019215
3.553	0.552947	0.486235	0.191447	0.316006	0.278296	0.095412	0.22817	0.078939	0.008327	0.015194	1.023231	0.180593	0.004737	0.285734	0.0327	0.019962
3.5535	0.553652	0.48624	0.194012	0.319234	0.281285	0.097234	0.228407	0.080142	0.008378	0.015207	1.024158	0.182769	0.004795	0.288878	0.033532	0.020733
3.554	0.554359	0.486234	0.196576	0.322465	0.284306	0.099109	0.228619	0.081355	0.008431	0.015217	1.025031	0.184958	0.004858	0.291988	0.034394	0.021526
3.5545	0.555066	0.486216	0.199138	0.3257	0.287356	0.101038	0.228806	0.082577	0.008486	0.015225	1.025849	0.187159	0.004926	0.295063	0.035288	0.022343
3.555	0.555771	0.486188	0.201697	0.328939	0.290434	0.10302	0.228967	0.083809	0.008544	0.01523	1.026612	0.189374	0.005001	0.2981	0.036214	0.023184
3.5555	0.556474	0.486151	0.204253	0.332179	0.293538	0.105057	0.229101	0.085051	0.008604	0.015233	1.027318	0.191603	0.00508	0.301099	0.037173	0.024049
3.556	0.557173	0.486104	0.206805	0.33542	0.296668	0.10715	0.229208	0.086302	0.008666	0.015233	1.027965	0.193845	0.005166	0.304057	0.038165	0.024939
3.5565	0.557866	0.486049	0.209352	0.338662	0.299822	0.109298	0.229287	0.087562	0.008732	0.015231	1.028554	0.196101	0.005259	0.306974	0.039191	0.025854
3.557	0.558552	0.485985	0.211894	0.341903	0.302999	0.111502	0.229338	0.088832	0.0088	0.015226	1.029081	0.198371	0.005357	0.309847	0.040251	0.026794
3.5575	0.559229	0.485915	0.214431	0.345143	0.306196	0.113764	0.22936	0.090111	0.008871	0.015219	1.029546	0.200656	0.005463	0.312676	0.041347	0.02776
3.558	0.559896	0.485837	0.216962	0.348379	0.309412	0.116082	0.229353	0.091399	0.008945	0.015208	1.029948	0.202956	0.005575	0.315459	0.042478	0.028752
3.5585	0.560551	0.485752	0.219486	0.351612	0.312646	0.118459	0.229317	0.092696	0.009021	0.015195	1.030285	0.20527	0.005695	0.318195	0.043645	0.02977
3.559	0.561193	0.485661	0.222004	0.35484	0.315896	0.120894	0.229251	0.094002	0.009101	0.015179	1.030555	0.207599	0.005821	0.320883	0.044849	0.030815
3.5595	0.561819	0.485564	0.224515	0.358061	0.319161	0.123388	0.229154	0.095317	0.009184	0.01516	1.030756	0.209943	0.005956	0.323522	0.04609	0.031887
3.56	0.562429	0.485462	0.22702	0.361273	0.322438	0.125941	0.229027	0.096642	0.009271	0.015139	1.030886	0.212301	0.006098	0.326111	0.047369	0.032986
3.5605	0.563019	0.485355	0.229519	0.364477	0.325727	0.128553	0.228868	0.097976	0.00936	0.015114	1.030945	0.214675	0.006248	0.328648	0.048686	0.034113
3.561	0.563587	0.485242	0.232011	0.36767	0.329027	0.131226	0.228677	0.099319	0.009453	0.015087	1.030931	0.217062	0.006407	0.331133	0.050042	0.035267
3.5615	0.564132	0.485123	0.234496	0.37085	0.332336	0.133959	0.228455	0.100672	0.009549	0.015056	1.030843	0.219465	0.006574	0.333564	0.051438	0.03645
3.562	0.56465	0.484999	0.236975	0.374017	0.335653	0.136753	0.228201	0.102035	0.00965	0.015023	1.030681	0.221881	0.00675	0.33594	0.052874	0.037661
3.5625	0.565141	0.48487	0.239447	0.377168	0.338977	0.139607	0.227915	0.103407	0.009753	0.014987	1.030443	0.224312	0.006934	0.338259	0.05435	0.038901
3.563	0.5656	0.484734	0.241912	0.380303	0.342307	0.142523	0.227597	0.10479	0.009861	0.014947	1.030129	0.226757	0.007128	0.340521	0.055867	0.04017
3.5635	0.566025	0.484592	0.24437	0.383419	0.345641	0.145501	0.227248	0.106182	0.009972	0.014905	1.029738	0.229216	0.007331	0.342723	0.057425	0.041468
3.564	0.566415	0.484443	0.246822	0.386517	0.348979	0.148541	0.226869	0.107585	0.010087	0.01486	1.029269	0.231688	0.007544	0.344865	0.059025	0.042796
3.5645	0.566766	0.484286	0.249266	0.389593	0.352318	0.151643	0.226458	0.108997	0.010207	0.014812	1.028723	0.234175	0.007767	0.346945	0.060667	0.044154
3.565	0.567075	0.484121	0.251702	0.392648	0.355659	0.154807	0.226016	0.110421	0.01033	0.01476	1.028098	0.236674	0.008	0.348963	0.062352	0.045542
3.5655	0.567341	0.483947	0.254131	0.39568	0.358999	0.158034	0.225545	0.111854	0.010458	0.014706	1.027395	0.239188	0.008243	0.350916	0.064079	0.04696
3.566	0.567559	0.483763	0.256552	0.398688	0.362337	0.161323	0.225043	0.113298	0.01059	0.014649	1.026616	0.241714	0.008496	0.352804	0.06585	0.048409
3.5665	0.567729	0.483568	0.258964	0.401671	0.365672	0.164675	0.224511	0.114753	0.010726	0.014588	1.02576	0.244254	0.00876	0.354625	0.067665	0.04989
3.567	0.567848	0.483361	0.261368	0.404627	0.369003	0.168089	0.22395	0.116218	0.010867	0.014525	1.024827	0.246807	0.009035	0.356379	0.069524	0.051401
3.5675	0.567914	0.483141	0.263764	0.407556	0.372331	0.171566	0.223358	0.117694	0.011013	0.014459	1.02382	0.249372	0.009321	0.358064	0.071427	0.052944
3.568	0.567926	0.482909	0.266152	0.410457	0.375653	0.175105	0.222738	0.11918	0.011163	0.014389	1.022737	0.25195	0.009619	0.359681	0.073375	0.054518
3.5685	0.567881	0.482663	0.268531	0.41333	0.37897	0.178707	0.222088	0.120676	0.011317	0.014317	1.021578	0.25454	0.009928	0.361227	0.075368	0.056125
3.569	0.567778	0.482402	0.270902	0.416173	0.382282	0.18237	0.22141	0.122182	0.011477	0.014242	1.020345	0.257143	0.010249	0.362702	0.077406	0.057764
3.5695	0.567615	0.482127	0.273265	0.418988	0.385587	0.186096	0.220704	0.123698	0.011641	0.014164	1.019035	0.259756	0.010582	0.364105	0.079489	0.059435
3.57	0.567391	0.481837	0.275621	0.421774	0.388886	0.189883	0.21997	0.125224	0.011811	0.014083	1.017651	0.262382	0.010927	0.365435	0.081619	0.061138
3.5705	0.567103	0.481531	0.27797	0.42453	0.392177	0.193731	0.219209	0.12676	0.011985	0.013999	1.016191	0.26502	0.011285	0.366693	0.083794	0.062875
3.571	0.56675	0.481209	0.280313	0.427257	0.39546	0.197641	0.218421	0.128305	0.012165	0.013913	1.014655	0.267669	0.011655	0.367876	0.086016	0.064644
3.5715	0.566329	0.48087	0.28265	0.429953	0.398734	0.20161	0.217607	0.12986	0.012349	0.013824	1.013044	0.270331	0.012038	0.368985	0.088284	0.066447
3.572	0.565839	0.480514	0.284982	0.43262	0.401999	0.20564	0.216766	0.131424	0.012539	0.013733	1.011357	0.273006	0.012435	0.370019	0.090598	0.068283
3.5725	0.565277	0.48014	0.287308	0.435257	0.405252	0.209729	0.2159	0.132996	0.012735	0.013639	1.009595	0.275694	0.012844	0.370977	0.09296	0.070153
3.573	0.564643	0.479748	0.28963	0.437866	0.408494	0.213876	0.215007	0.134577	0.012936	0.013542	1.007755	0.278396	0.013268	0.371859	0.095368	0.072056
3.5735	0.563934	0.479335	0.291947	0.440445	0.411722	0.218082	0.21409	0.136167	0.013143	0.013444	1.005839	0.281113	0.013705	0.372664	0.097822	0.073993
3.574	0.56315	0.478902	0.29426	0.442998	0.414936	0.222346	0.213146	0.137765	0.013356	0.013343	1.003845	0.283846	0.014156	0.373392	0.100324	0.075964
3.5745	0.562288	0.478448	0.296569	0.445523	0.418134	0.226666	0.212178	0.139371	0.013575	0.01324	1.001771	0.286595	0.014621	0.374043	0.102873	0.07797
3.575	0.561348	0.477971	0.298875	0.448023	0.421315	0.231042	0.211185	0.140986	0.013799	0.013135	0.999617	0.289361	0.015101	0.374616	0.105469	0.080009
3.5755	0.560328	0.47747	0.301178	0.450497	0.424478	0.235474	0.210168	0.142608	0.01403	0.013029	0.997383	0.292144	0.015596	0.375111	0.108112	0.082083
3.576	0.559226	0.476944	0.303479	0.452946	0.427621	0.23996	0.209126	0.144239	0.014267	0.01292	0.995065	0.294946	0.016105	0.375529	0.110802	0.08419
3.5765	0.558042	0.476392	0.305779	0.455371	0.430743	0.2445	0.208059	0.145878	0.014511	0.01281	0.992664	0.297766	0.01663	0.375868	0.11354	0.086332
3.577	0.556773	0.475813	0.308078	0.457772	0.433842	0.249092	0.206968	0.147525	0.014761	0.012698	0.990178	0.300607	0.017169	0.37613	0.116324	0.088509
3.5775	0.555419	0.475205	0.310376	0.460149	0.436917	0.253735	0.205853	0.149181	0.015018	0.012585	0.987605	0.303467	0.017725	0.376313	0.119155	0.090719
3.578	0.553977	0.47457	0.312675	0.462503	0.439967	0.258429	0.204714	0.150845	0.015282	0.01247	0.984942	0.306348	0.018296	0.37642	0.122033	0.092965
3.5785	0.552448	0.473906	0.314974	0.464833	0.442989	0.263173	0.203552	0.152518	0.015553	0.012355	0.982188	0.309251	0.018883	0.376448	0.124957	0.095244
3.579	0.55083	0.473214	0.317274	0.46714	0.445983	0.267964	0.202366	0.1542	0.015831	0.012239	0.979341	0.312176	0.019486	0.376399	0.127929	0.097558
3.5795	0.549122	0.472496	0.319576	0.469424	0.448948	0.272803	0.201156	0.155891	0.016116	0.012123	0.976399	0.315126	0.020105	0.376272	0.130946	0.099906
3.58	0.547325	0.471751	0.321879	0.471684	0.451883	0.277687	0.199924	0.157591	0.016409	0.012007	0.973358	0.318101	0.02074	0.376068	0.13401	0.102289
3.5805	0.545438	0.470981	0.324185	0.473923	0.454786	0.282615	0.198668	0.159301	0.016709	0.011891	0.970218	0.321103	0.021393	0.375787	0.13712	0.104706
3.581	0.543461	0.470186	0.326492	0.47614	0.457659	0.287586	0.197389	0.161021	0.017017	0.011775	0.966976	0.324133	0.022062	0.375428	0.140276	0.107157
3.5815	0.541393	0.469368	0.328803	0.478335	0.460499	0.292598	0.196088	0.162751	0.017333	0.01166	0.963629	0.327192	0.022748	0.374993	0.143477	0.109643
3.582	0.539234	0.468527	0.331117	0.480509	0.463306	0.29765	0.194765	0.164491	0.017656	0.011547	0.960174	0.330282	0.023451	0.374481	0.146724	0.112163
3.5825	0.536984	0.467665	0.333434	0.482662	0.46608	0.30274	0.193421	0.166243	0.017988	0.011435	0.956611	0.333403	0.024171	0.373893	0.150015	0.114717
3.583	0.534644	0.466782	0.335755	0.484796	0.46882	0.307866	0.192056	0.168006	0.018328	0.011324	0.952935	0.336558	0.024909	0.373228	0.153351	0.117305
3.5835	0.532213	0.46588	0.33808	0.48691	0.471525	0.313026	0.190672	0.169782	0.018676	0.011216	0.949147	0.339747	0.025665	0.372487	0.156731	0.119927
3.584	0.529693	0.464959	0.340409	0.489005	0.474194	0.318219	0.189269	0.171569	0.019032	0.01111	0.945243	0.342971	0.026438	0.371671	0.160154	0.122583
3.5845	0.527085	0.464022	0.342742	0.491081	0.476827	0.323443	0.187848	0.17337	0.019397	0.011007	0.941224	0.34623	0.027229	0.370779	0.163621	0.125272
3.585	0.524392	0.46307	0.34508	0.49314	0.479423	0.328696	0.18641	0.175183	0.019771	0.010907	0.937089	0.349527	0.028038	0.369812	0.16713	0.127995
3.5855	0.521616	0.462103	0.347424	0.495182	0.481982	0.333975	0.184957	0.177011	0.020154	0.010811	0.932836	0.35286	0.028866	0.368771	0.170681	0.130752
3.586	0.51876	0.461124	0.349772	0.497206	0.484504	0.33928	0.183488	0.178852	0.020546	0.010718	0.928466	0.356232	0.029711	0.367657	0.174274	0.133542
3.5865	0.515826	0.460133	0.352126	0.499215	0.486988	0.344607	0.182006	0.180708	0.020947	0.01063	0.923978	0.359642	0.030575	0.366471	0.177907	0.136366
3.587	0.512819	0.459131	0.354487	0.501206	0.489433	0.349955	0.18051	0.182579	0.021357	0.010547	0.919372	0.363092	0.031457	0.365215	0.181581	0.139223
3.5875	0.509741	0.458119	0.356854	0.503182	0.491839	0.355321	0.179003	0.184465	0.021777	0.010468	0.914651	0.366581	0.032358	0.363888	0.185294	0.142112
3.588	0.506595	0.457098	0.359228	0.505141	0.494207	0.360705	0.177484	0.186368	0.022206	0.010395	0.909815	0.37011	0.033277	0.362493	0.189046	0.145035
3.5885	0.503385	0.456068	0.361609	0.507084	0.496534	0.366102	0.175955	0.188288	0.022646	0.010328	0.904867	0.373679	0.034216	0.361029	0.192836	0.14799
3.589	0.500115	0.455031	0.363996	0.509011	0.498822	0.371513	0.174418	0.190224	0.023095	0.010267	0.89981	0.377289	0.035172	0.359499	0.196663	0.150977
3.5895	0.496787	0.453987	0.366391	0.510922	0.501071	0.376933	0.172872	0.192178	0.023554	0.010213	0.894647	0.380939	0.036148	0.357903	0.200527	0.153996
3.59	0.493407	0.452937	0.368793	0.512818	0.503279	0.382362	0.171319	0.194149	0.024024	0.010166	0.889381	0.384631	0.037143	0.356241	0.204426	0.157047
3.5905	0.489977	0.451881	0.371202	0.514697	0.505447	0.387798	0.16976	0.196139	0.024504	0.010127	0.884013	0.388363	0.038156	0.354515	0.208359	0.160129
3.591	0.486503	0.45082	0.373618	0.516561	0.507576	0.393237	0.168196	0.198147	0.024995	0.010096	0.878548	0.392137	0.039188	0.352727	0.212326	0.163241
3.5915	0.482986	0.449755	0.376041	0.518409	0.509665	0.398679	0.166628	0.200174	0.025496	0.010073	0.872987	0.395952	0.04024	0.350876	0.216324	0.166384
3.592	0.479432	0.448685	0.37847	0.52024	0.511715	0.40412	0.165057	0.20222	0.026008	0.010059	0.867333	0.399809	0.04131	0.348966	0.220354	0.169557
3.5925	0.475844	0.447611	0.380906	0.522055	0.513724	0.409558	0.163484	0.204286	0.026531	0.010055	0.861588	0.403707	0.042399	0.346998	0.224414	0.172759
3.593	0.472225	0.446534	0.383349	0.523853	0.515693	0.414992	0.16191	0.206372	0.027065	0.01006	0.855757	0.407647	0.043507	0.344974	0.228502	0.17599
3.5935	0.46858	0.445453	0.385798	0.525634	0.517622	0.420418	0.160336	0.208478	0.027611	0.010076	0.849841	0.41163	0.044634	0.342897	0.232618	0.179249
3.594	0.464911	0.444368	0.388252	0.5274	0.519511	0.425834	0.158764	0.210604	0.028168	0.010102	0.843845	0.415655	0.04578	0.340768	0.236759	0.182536
3.5945	0.461223	0.443281	0.390712	0.529151	0.521359	0.431239	0.157193	0.21275	0.028736	0.010139	0.837771	0.419723	0.046945	0.338591	0.240925	0.185852
3.595	0.457518	0.442191	0.393177	0.530886	0.523166	0.436631	0.155625	0.214917	0.029317	0.010188	0.831624	0.423834	0.048129	0.336367	0.245114	0.189194
3.5955	0.4538	0.441099	0.395645	0.532608	0.524932	0.442008	0.154061	0.217105	0.029909	0.010248	0.825406	0.427989	0.049331	0.334098	0.249325	0.192564
3.596	0.450072	0.440004	0.398117	0.534315	0.526659	0.44737	0.152502	0.219314	0.030513	0.010321	0.819121	0.432187	0.050552	0.331787	0.253556	0.19596
3.5965	0.446336	0.438907	0.400592	0.536009	0.528345	0.452714	0.150948	0.221543	0.031129	0.010407	0.812773	0.436428	0.051792	0.329436	0.257805	0.199383
3.597	0.442597	0.43781	0.403068	0.537691	0.529991	0.45804	0.149401	0.223792	0.031758	0.010506	0.806364	0.440713	0.05305	0.327047	0.26207	0.20283
3.5975	0.438856	0.436713	0.405546	0.53936	0.531598	0.463347	0.147861	0.226062	0.032399	0.010618	0.799897	0.445042	0.054327	0.324622	0.266352	0.206303
3.598	0.435117	0.435616	0.408024	0.541018	0.533167	0.468634	0.146328	0.228352	0.033052	0.010745	0.793375	0.449413	0.055622	0.322162	0.270646	0.2098
3.5985	0.431383	0.43452	0.410503	0.542665	0.534697	0.473899	0.144804	0.230662	0.033717	0.010886	0.786801	0.453826	0.056936	0.319671	0.274953	0.21332
3.599	0.427656	0.433426	0.412981	0.544305	0.53619	0.47914	0.143288	0.232992	0.034395	0.011042	0.780178	0.458281	0.058267	0.31715	0.27927	0.216864
3.5995	0.423939	0.432334	0.415458	0.545938	0.537644	0.484358	0.141783	0.235341	0.035086	0.011213	0.773509	0.462778	0.059617	0.314601	0.283595	0.22043
3.6	0.420235	0.431245	0.417934	0.547565	0.539061	0.48955	0.140288	0.237709	0.03579	0.0114	0.766798	0.467314	0.060985	0.312025	0.287926	0.224018
3.6005	0.416546	0.430159	0.420407	0.54919	0.540442	0.494715	0.138803	0.240095	0.036506	0.011603	0.760047	0.471891	0.06237	0.309426	0.292263	0.227627
3.601	0.412875	0.429076	0.422877	0.550813	0.541785	0.499854	0.13733	0.242499	0.037236	0.011823	0.753258	0.476506	0.063773	0.306803	0.296602	0.231257
3.6015	0.409223	0.427997	0.425343	0.552437	0.543093	0.504964	0.135869	0.244921	0.037978	0.01206	0.746435	0.481159	0.065194	0.30416	0.300943	0.234906
3.602	0.405594	0.42692	0.427805	0.554062	0.544365	0.510046	0.134421	0.247359	0.038734	0.012314	0.73958	0.485848	0.066632	0.301497	0.305283	0.238574
3.6025	0.40199	0.425847	0.430261	0.555691	0.545603	0.515097	0.132985	0.249813	0.039502	0.012587	0.732696	0.490573	0.068088	0.298817	0.309622	0.24226
3.603	0.398412	0.424776	0.432711	0.557326	0.546806	0.520119	0.131563	0.252283	0.040284	0.012877	0.725785	0.495332	0.06956	0.296122	0.313957	0.245962
3.6035	0.394864	0.42371	0.435153	0.558968	0.547975	0.525108	0.130156	0.254768	0.04108	0.013187	0.718851	0.500124	0.071049	0.293413	0.318286	0.249681
3.604	0.391346	0.422646	0.437585	0.560619	0.549111	0.530064	0.128762	0.257267	0.041888	0.013515	0.711896	0.504948	0.072555	0.290692	0.322609	0.253414
3.6045	0.387862	0.421586	0.440008	0.562282	0.550213	0.534985	0.127384	0.259779	0.04271	0.013863	0.704923	0.509801	0.074077	0.287961	0.326924	0.257162
3.605	0.384412	0.420529	0.442419	0.563959	0.551282	0.53987	0.126021	0.262304	0.043545	0.014232	0.697934	0.514683	0.075616	0.285223	0.331229	0.260922
3.6055	0.380999	0.419474	0.444818	0.565654	0.552317	0.544718	0.124674	0.264841	0.044394	0.014621	0.690932	0.519593	0.07717	0.282477	0.335524	0.264694
3.606	0.377624	0.418423	0.447202	0.567367	0.553319	0.549525	0.123342	0.267388	0.045256	0.01503	0.683921	0.524528	0.07874	0.279728	0.339806	0.268476
3.6065	0.374289	0.417373	0.449571	0.569103	0.554289	0.554292	0.122027	0.269946	0.046132	0.015461	0.676903	0.529489	0.080326	0.276975	0.344074	0.272267
3.607	0.370996	0.416325	0.451924	0.570862	0.555225	0.559016	0.120729	0.272513	0.047021	0.015914	0.669882	0.534472	0.081927	0.274221	0.348326	0.276067
3.6075	0.367746	0.415279	0.454258	0.572648	0.556128	0.563694	0.119448	0.275089	0.047924	0.01639	0.662861	0.539476	0.083543	0.271468	0.352562	0.279873
3.608	0.364541	0.414234	0.456574	0.574462	0.556999	0.568326	0.118184	0.277674	0.048841	0.016888	0.655843	0.544501	0.085173	0.268716	0.356778	0.283684
3.6085	0.361382	0.413189	0.45887	0.576306	0.557837	0.572909	0.116938	0.280266	0.049771	0.01741	0.64883	0.549543	0.086818	0.265967	0.360974	0.2875
3.609	0.35827	0.412146	0.461146	0.578183	0.558643	0.577442	0.11571	0.282867	0.050715	0.017955	0.641825	0.554601	0.088478	0.263224	0.365148	0.291319
3.6095	0.355207	0.411103	0.463401	0.580093	0.559417	0.581922	0.114499	0.285475	0.051673	0.018525	0.634831	0.559674	0.09015	0.260487	0.369299	0.29514
3.61	0.352194	0.41006	0.465634	0.582039	0.560157	0.586349	0.113307	0.288089	0.052645	0.01912	0.62785	0.564758	0.091837	0.257758	0.373425	0.298963
3.6105	0.349233	0.409017	0.467844	0.584022	0.560865	0.590721	0.112134	0.290711	0.053631	0.01974	0.620885	0.569851	0.093536	0.255039	0.377524	0.302785
3.611	0.346323	0.407973	0.47003	0.586043	0.56154	0.595037	0.110979	0.293339	0.054632	0.020386	0.613937	0.574952	0.095248	0.25233	0.381596	0.306606
3.6115	0.343466	0.406927	0.472193	0.588105	0.562181	0.599295	0.109843	0.295975	0.055646	0.021058	0.60701	0.580058	0.096972	0.249634	0.385638	0.310425
3.612	0.340664	0.405881	0.474332	0.590208	0.562789	0.603493	0.108725	0.298617	0.056674	0.021757	0.600106	0.585167	0.098708	0.246951	0.389649	0.314241
3.6125	0.337917	0.404831	0.476445	0.592354	0.563363	0.60763	0.107627	0.301267	0.057717	0.022483	0.593225	0.590274	0.100456	0.244284	0.393628	0.318053
3.613	0.335225	0.403779	0.478534	0.594546	0.563904	0.611705	0.106547	0.303924	0.058774	0.023237	0.586372	0.595379	0.102215	0.241632	0.397572	0.321859
3.6135	0.33259	0.402723	0.480597	0.596783	0.564412	0.615717	0.105486	0.306589	0.059846	0.024019	0.579546	0.600477	0.103985	0.238998	0.401479	0.325658
3.614	0.330012	0.401662	0.482634	0.599068	0.564885	0.619663	0.104444	0.309262	0.060932	0.02483	0.572751	0.605567	0.105765	0.236382	0.405348	0.329448
3.6145	0.327492	0.400597	0.484643	0.601401	0.565325	0.623544	0.103421	0.311943	0.062033	0.02567	0.565989	0.610643	0.107555	0.233786	0.409177	0.333229
3.615	0.32503	0.399526	0.486626	0.603783	0.565731	0.627357	0.102417	0.314633	0.063148	0.02654	0.559262	0.615704	0.109355	0.23121	0.412962	0.336999
3.6155	0.322627	0.398449	0.48858	0.606215	0.566103	0.631102	0.101431	0.317331	0.064279	0.02744	0.552571	0.620746	0.111165	0.228655	0.416702	0.340756
3.616	0.320283	0.397365	0.490505	0.608698	0.566441	0.634777	0.100464	0.320038	0.065424	0.028371	0.545919	0.625765	0.112983	0.226123	0.420395	0.344499
3.6165	0.317998	0.396275	0.492401	0.611233	0.566745	0.638381	0.099515	0.322753	0.066585	0.029334	0.539308	0.630758	0.11481	0.223614	0.424037	0.348226
3.617	0.315773	0.395178	0.494267	0.613819	0.567017	0.641914	0.098585	0.325478	0.067761	0.030328	0.53274	0.63572	0.116646	0.221129	0.427627	0.351936
3.6175	0.313608	0.394073	0.496102	0.616457	0.567257	0.645374	0.097673	0.328212	0.068952	0.031354	0.526217	0.640649	0.118489	0.218669	0.431161	0.355626
3.618	0.311503	0.392961	0.497906	0.619146	0.567464	0.64876	0.096779	0.330955	0.070159	0.032414	0.519742	0.645539	0.120339	0.216236	0.434638	0.359296
3.6185	0.309458	0.39184	0.499677	0.621889	0.56764	0.652071	0.095902	0.333707	0.071382	0.033506	0.513317	0.650388	0.122197	0.21383	0.438055	0.362945
3.619	0.307473	0.390711	0.501414	0.624683	0.567785	0.655306	0.095044	0.336469	0.072621	0.034632	0.506944	0.655192	0.124061	0.211452	0.441409	0.366572
3.6195	0.305548	0.389574	0.503118	0.627531	0.5679	0.658466	0.094202	0.33924	0.073877	0.035793	0.500626	0.659948	0.125931	0.209103	0.444698	0.370174
3.62	0.303683	0.388427	0.504787	0.630433	0.567985	0.661548	0.093378	0.342021	0.075149	0.036988	0.494363	0.664653	0.127807	0.206784	0.44792	0.373752
3.6205	0.301877	0.387271	0.506421	0.633387	0.568042	0.664552	0.092571	0.344813	0.076438	0.038219	0.488159	0.669306	0.129688	0.204495	0.451072	0.377304
3.621	0.300131	0.386104	0.508019	0.636396	0.568072	0.667477	0.09178	0.347614	0.077744	0.039485	0.482014	0.673903	0.131575	0.202239	0.454153	0.380829
3.6215	0.298444	0.384927	0.50958	0.639459	0.568075	0.670322	0.091005	0.350426	0.079068	0.040787	0.475931	0.678444	0.133465	0.200014	0.45716	0.384326
3.622	0.296814	0.38374	0.511104	0.642577	0.568054	0.673085	0.090247	0.353249	0.080411	0.042126	0.469912	0.682926	0.13536	0.197823	0.46009	0.387794
3.6225	0.295243	0.382541	0.512593	0.645751	0.56801	0.675765	0.089504	0.356083	0.081772	0.043502	0.463957	0.687349	0.137259	0.195665	0.462942	0.391232
3.623	0.293729	0.38133	0.514045	0.64898	0.567944	0.678361	0.088777	0.358929	0.083151	0.044916	0.458068	0.691709	0.139161	0.193542	0.465714	0.394639
3.6235	0.292272	0.380108	0.515461	0.652267	0.567857	0.680872	0.088065	0.361786	0.084551	0.046367	0.452248	0.696007	0.141066	0.191454	0.468403	0.398015
3.624	0.290871	0.378874	0.516841	0.65561	0.56775	0.683297	0.087369	0.364655	0.08597	0.047857	0.446497	0.700242	0.142974	0.189403	0.471008	0.401359
3.6245	0.289527	0.377628	0.518187	0.659011	0.567625	0.685635	0.086687	0.367535	0.08741	0.049385	0.440817	0.704412	0.144883	0.187387	0.473526	0.404669
3.625	0.288238	0.37637	0.519496	0.66247	0.567481	0.687884	0.086019	0.370428	0.08887	0.050952	0.435209	0.708517	0.146795	0.185409	0.475959	0.407945
3.6255	0.287004	0.3751	0.52077	0.665985	0.567321	0.690045	0.085366	0.373334	0.090352	0.052559	0.429675	0.712559	0.148707	0.183468	0.478305	0.411186
3.626	0.285825	0.373819	0.522009	0.669558	0.567145	0.692116	0.084728	0.376251	0.091856	0.054206	0.424215	0.716536	0.15062	0.181566	0.480564	0.414391
3.6265	0.2847	0.372526	0.523211	0.673188	0.566953	0.694097	0.084102	0.379181	0.093381	0.055893	0.41883	0.720448	0.152533	0.179702	0.482738	0.417558
3.627	0.283628	0.371221	0.524377	0.676874	0.566746	0.695988	0.083491	0.382124	0.094929	0.057621	0.413521	0.724296	0.154446	0.177877	0.484826	0.420686
3.6275	0.28261	0.369905	0.525506	0.680616	0.566524	0.697787	0.082892	0.385078	0.0965	0.05939	0.40829	0.728078	0.156357	0.176091	0.48683	0.423774
3.628	0.281644	0.368578	0.526598	0.684413	0.566288	0.699497	0.082307	0.388046	0.098095	0.0612	0.403137	0.731794	0.158268	0.174344	0.488749	0.426821
3.6285	0.280729	0.36724	0.527651	0.688263	0.566037	0.701116	0.081734	0.391025	0.099713	0.063051	0.398062	0.735444	0.160176	0.172637	0.490586	0.429826
3.629	0.279866	0.36589	0.528666	0.692166	0.565772	0.702646	0.081173	0.394017	0.101355	0.064945	0.393066	0.739026	0.162082	0.17097	0.492341	0.432789
3.6295	0.279052	0.364529	0.52964	0.696121	0.565492	0.704087	0.080624	0.397021	0.103022	0.066881	0.38815	0.742539	0.163985	0.169344	0.494015	0.435708
3.63	0.278287	0.363156	0.530574	0.700125	0.565198	0.70544	0.080086	0.400036	0.104714	0.068859	0.383314	0.745984	0.165884	0.167758	0.495609	0.438583
3.6305	0.277571	0.361773	0.531467	0.704177	0.56489	0.706705	0.07956	0.403063	0.106432	0.07088	0.378558	0.749359	0.167779	0.166213	0.497126	0.441412
3.631	0.276901	0.360378	0.532318	0.708276	0.564568	0.707882	0.079044	0.4061	0.108175	0.072945	0.373883	0.752665	0.16967	0.164708	0.498566	0.444196
3.6315	0.276278	0.358972	0.533127	0.712419	0.564232	0.708973	0.078539	0.409147	0.109945	0.075054	0.369289	0.7559	0.171556	0.163245	0.499933	0.446934
3.632	0.2757	0.357556	0.533893	0.716604	0.563882	0.709977	0.078044	0.412204	0.111741	0.077206	0.364775	0.759065	0.173437	0.161823	0.501227	0.449624
3.6325	0.275166	0.356128	0.534616	0.72083	0.563517	0.710894	0.077559	0.41527	0.113565	0.079403	0.360343	0.762159	0.175312	0.160442	0.502451	0.452268
3.633	0.274675	0.354691	0.535296	0.725094	0.563137	0.711726	0.077084	0.418346	0.115417	0.081644	0.355991	0.765181	0.17718	0.159102	0.503607	0.454866
3.6335	0.274226	0.353243	0.535933	0.729394	0.562742	0.712471	0.076617	0.421431	0.117298	0.083931	0.35172	0.76813	0.179041	0.157804	0.504696	0.457418
3.634	0.273816	0.351785	0.536525	0.733728	0.562332	0.71313	0.07616	0.424524	0.119207	0.086263	0.34753	0.771006	0.180895	0.156548	0.505721	0.459924
3.6345	0.273446	0.350317	0.537074	0.738094	0.561906	0.713703	0.075712	0.427625	0.121146	0.088641	0.34342	0.773807	0.18274	0.155334	0.506683	0.462386
3.635	0.273113	0.348838	0.537579	0.742489	0.561464	0.71419	0.075272	0.430733	0.123115	0.091065	0.33939	0.776534	0.184577	0.154161	0.507584	0.464804
3.6355	0.272816	0.34735	0.538039	0.74691	0.561006	0.71459	0.074841	0.433849	0.125113	0.093535	0.33544	0.779186	0.186405	0.15303	0.508426	0.467179
3.636	0.272554	0.345852	0.538454	0.751354	0.560531	0.714902	0.074418	0.43697	0.127143	0.096053	0.331569	0.78176	0.188223	0.151941	0.509211	0.469511
3.6365	0.272326	0.344344	0.538826	0.75582	0.560039	0.715126	0.074003	0.440096	0.129203	0.098618	0.327776	0.784257	0.190031	0.150893	0.50994	0.471801
3.637	0.272129	0.342826	0.539152	0.760303	0.559529	0.715261	0.073595	0.443226	0.131295	0.10123	0.324062	0.786676	0.191829	0.149887	0.510615	0.474049
3.6375	0.271963	0.3413	0.539435	0.764801	0.559001	0.715307	0.073196	0.446358	0.133418	0.10389	0.320425	0.789015	0.193616	0.148922	0.511239	0.476257
3.638	0.271825	0.339764	0.539673	0.76931	0.558453	0.715264	0.072804	0.449493	0.135574	0.106598	0.316864	0.791274	0.195392	0.147998	0.511811	0.478423
3.6385	0.271715	0.338221	0.539869	0.773827	0.557885	0.715132	0.072419	0.452629	0.137761	0.109354	0.31338	0.793454	0.197156	0.147115	0.512333	0.48055
3.639	0.27163	0.336669	0.540023	0.77835	0.557295	0.714911	0.072041	0.455765	0.139981	0.112159	0.30997	0.795553	0.19891	0.146273	0.512806	0.482638
3.6395	0.271569	0.335109	0.540137	0.782874	0.556683	0.714601	0.07167	0.458901	0.142234	0.115013	0.306635	0.797572	0.200651	0.145472	0.513232	0.484688
3.64	0.271531	0.333541	0.540213	0.787396	0.556047	0.714203	0.071307	0.462037	0.144519	0.117915	0.303372	0.799513	0.202382	0.14471	0.513612	0.486699
3.6405	0.271513	0.331965	0.540252	0.791914	0.555386	0.713716	0.07095	0.46517	0.146837	0.120867	0.300182	0.801374	0.2041	0.143989	0.513946	0.488673
3.641	0.271514	0.330382	0.540257	0.796425	0.554698	0.713141	0.0706	0.468302	0.149189	0.123868	0.297063	0.803157	0.205807	0.143306	0.514237	0.49061
3.6415	0.271532	0.328792	0.54023	0.800926	0.553982	0.712475	0.070256	0.471429	0.151573	0.126918	0.294013	0.804861	0.207502	0.142663	0.514484	0.492511
3.642	0.271565	0.327194	0.540173	0.805416	0.553237	0.711721	0.069919	0.474553	0.153991	0.130018	0.291033	0.806488	0.209184	0.142059	0.514689	0.494376
3.6425	0.271611	0.32559	0.540088	0.809891	0.552462	0.710876	0.069587	0.477671	0.156442	0.133168	0.288119	0.808037	0.210854	0.141493	0.514853	0.496206
3.643	0.271669	0.323979	0.539978	0.814351	0.551655	0.70994	0.069262	0.480782	0.158926	0.136367	0.285272	0.80951	0.212511	0.140964	0.514977	0.498
3.6435	0.271737	0.322363	0.539843	0.818795	0.550815	0.708914	0.068943	0.483885	0.161443	0.139616	0.28249	0.810907	0.214155	0.140473	0.515062	0.499759
3.644	0.271812	0.320741	0.539688	0.82322	0.549941	0.707796	0.068629	0.486978	0.163993	0.142915	0.279772	0.812229	0.215785	0.140018	0.515108	0.501484
3.6445	0.271894	0.319114	0.539512	0.827626	0.549031	0.706586	0.068321	0.490061	0.166576	0.146263	0.277117	0.813479	0.217402	0.139599	0.515115	0.503173
3.645	0.271981	0.317483	0.53932	0.832009	0.548085	0.705285	0.068018	0.493131	0.169191	0.149661	0.274524	0.814656	0.219005	0.139216	0.515085	0.504828
3.6455	0.272069	0.315847	0.539111	0.83637	0.5471	0.703893	0.067721	0.496189	0.171839	0.153109	0.271992	0.815764	0.220594	0.138867	0.515016	0.506448
3.646	0.272159	0.314207	0.53889	0.840704	0.546075	0.702412	0.067429	0.499233	0.174519	0.156606	0.26952	0.816803	0.222169	0.138552	0.51491	0.508033
3.6465	0.272247	0.312563	0.538657	0.84501	0.545011	0.700842	0.067141	0.502262	0.177231	0.160152	0.267109	0.817776	0.22373	0.13827	0.514767	0.509583
3.647	0.272332	0.310916	0.538414	0.849286	0.543905	0.699187	0.066859	0.505275	0.179975	0.163748	0.264756	0.818683	0.225279	0.138021	0.514585	0.511097
3.6475	0.272412	0.309267	0.538163	0.853528	0.542757	0.697447	0.066582	0.508272	0.18275	0.167392	0.262461	0.819526	0.226813	0.137804	0.514366	0.512575
3.648	0.272484	0.307615	0.537906	0.857735	0.541566	0.695625	0.066308	0.511251	0.185556	0.171086	0.260224	0.820307	0.228335	0.137617	0.514108	0.514017
3.6485	0.272546	0.305962	0.537644	0.861904	0.54033	0.693723	0.06604	0.514212	0.188393	0.174828	0.258043	0.821026	0.229844	0.137462	0.513812	0.515423
3.649	0.272597	0.304309	0.537378	0.866032	0.539049	0.691743	0.065776	0.517154	0.191261	0.178618	0.255918	0.821684	0.231339	0.137335	0.513477	0.516793
3.6495	0.272634	0.302657	0.53711	0.870119	0.537722	0.689687	0.065515	0.520075	0.194159	0.182456	0.253849	0.822283	0.232821	0.137238	0.513103	0.518126
3.65	0.272655	0.301005	0.536842	0.874162	0.536346	0.687557	0.065259	0.522976	0.197086	0.186341	0.251834	0.822823	0.234291	0.137168	0.51269	0.519422
3.6505	0.272659	0.299356	0.536576	0.878161	0.534923	0.685356	0.065007	0.525855	0.200042	0.190274	0.249872	0.823306	0.235747	0.137126	0.512239	0.520681
3.651	0.272643	0.29771	0.536312	0.882114	0.53345	0.683084	0.064758	0.528713	0.203028	0.194253	0.247964	0.823733	0.237189	0.13711	0.511747	0.521902
3.6515	0.272607	0.296067	0.536054	0.886019	0.531927	0.680745	0.064512	0.531548	0.206042	0.198278	0.246109	0.824106	0.238619	0.13712	0.511216	0.523086
3.652	0.272549	0.294429	0.535801	0.889876	0.530353	0.678339	0.06427	0.53436	0.209084	0.202349	0.244306	0.824425	0.240035	0.137155	0.510644	0.524231
3.6525	0.272467	0.292796	0.535557	0.893681	0.52873	0.675868	0.06403	0.537148	0.212153	0.206465	0.242554	0.824691	0.241437	0.137215	0.510032	0.525337
3.653	0.272359	0.291171	0.535323	0.897435	0.527056	0.673334	0.063794	0.539911	0.21525	0.210625	0.240854	0.824905	0.242826	0.137299	0.509378	0.526403
3.6535	0.272224	0.289552	0.5351	0.901136	0.525331	0.670738	0.063559	0.54265	0.218373	0.214829	0.239205	0.825069	0.244201	0.137407	0.508682	0.527429
3.654	0.272061	0.287943	0.534891	0.904782	0.523556	0.668082	0.063327	0.545365	0.221521	0.219075	0.237605	0.825182	0.245562	0.137538	0.507945	0.528413
3.6545	0.271868	0.286342	0.534697	0.908371	0.521731	0.665367	0.063096	0.548054	0.224695	0.223364	0.236057	0.825245	0.246908	0.137692	0.507166	0.529354
3.655	0.271643	0.284752	0.534519	0.911901	0.519856	0.662595	0.062867	0.550718	0.227893	0.227693	0.234558	0.825259	0.248242	0.137869	0.506344	0.530253
3.6555	0.271385	0.283174	0.534359	0.91537	0.517931	0.659768	0.062639	0.553358	0.231115	0.232063	0.233109	0.825225	0.249561	0.138068	0.505482	0.531107
3.656	0.271092	0.281606	0.534218	0.918776	0.515956	0.656887	0.062412	0.555972	0.234359	0.236472	0.231711	0.825144	0.250867	0.138289	0.504577	0.531916
3.6565	0.270765	0.280052	0.534098	0.922118	0.513933	0.653953	0.062185	0.55856	0.237626	0.240918	0.230363	0.825016	0.252161	0.138531	0.503632	0.532679
3.657	0.270402	0.278511	0.533999	0.925392	0.511863	0.650969	0.061958	0.561124	0.240914	0.245402	0.229066	0.824844	0.253441	0.138794	0.502647	0.533395
3.6575	0.270001	0.276983	0.533924	0.928598	0.509746	0.647935	0.061731	0.563662	0.244222	0.249921	0.22782	0.824627	0.254709	0.139079	0.501621	0.534064
3.658	0.269563	0.275471	0.533872	0.931733	0.507584	0.644854	0.061504	0.566174	0.247549	0.254475	0.226625	0.824366	0.255965	0.139384	0.500556	0.534686
3.6585	0.269086	0.273973	0.533844	0.934798	0.505377	0.641727	0.061276	0.568662	0.250894	0.259061	0.225482	0.824062	0.257209	0.13971	0.499452	0.535259
3.659	0.268571	0.272492	0.533842	0.937792	0.503128	0.638554	0.061046	0.571124	0.254256	0.263679	0.224389	0.823716	0.258442	0.140056	0.49831	0.535784
3.6595	0.268017	0.271027	0.533865	0.940716	0.500837	0.635339	0.060815	0.573561	0.257634	0.268328	0.223349	0.82333	0.259663	0.140423	0.497129	0.536261
3.66	0.267424	0.26958	0.533914	0.943568	0.498506	0.632081	0.060583	0.575973	0.261026	0.273005	0.22236	0.822903	0.260872	0.140809	0.49591	0.536688
3.6605	0.26679	0.268151	0.533989	0.94635	0.496135	0.628784	0.060348	0.57836	0.264432	0.277709	0.221422	0.822439	0.26207	0.141216	0.494654	0.537066
3.661	0.266117	0.26674	0.534091	0.949063	0.493725	0.625449	0.060112	0.580722	0.267848	0.282438	0.220536	0.821939	0.263256	0.141643	0.493361	0.537394
3.6615	0.265404	0.265347	0.53422	0.951709	0.491278	0.622077	0.059873	0.583059	0.271275	0.287192	0.219701	0.821404	0.264431	0.14209	0.492031	0.53767
3.662	0.264651	0.263974	0.534375	0.954288	0.488795	0.618672	0.059631	0.585371	0.27471	0.291967	0.218917	0.820837	0.265594	0.142556	0.490663	0.537895
3.6625	0.263858	0.26262	0.534557	0.956803	0.486275	0.615236	0.059386	0.587658	0.278152	0.296762	0.218184	0.820238	0.266746	0.143043	0.489259	0.538067
3.663	0.263024	0.261286	0.534767	0.959255	0.483721	0.611769	0.059138	0.58992	0.281599	0.301575	0.217501	0.819609	0.267885	0.143548	0.487818	0.538187
3.6635	0.26215	0.259971	0.535003	0.961644	0.481133	0.608275	0.058887	0.592157	0.285049	0.306405	0.216869	0.818951	0.269013	0.144073	0.486339	0.538252
3.664	0.261236	0.258676	0.535268	0.963972	0.478512	0.604754	0.058631	0.594368	0.2885	0.311249	0.216287	0.818266	0.270129	0.144617	0.484823	0.538264
3.6645	0.26028	0.2574	0.53556	0.966239	0.475858	0.601209	0.058372	0.596554	0.29195	0.316105	0.215754	0.817556	0.271232	0.14518	0.483269	0.53822
3.665	0.259283	0.256144	0.535879	0.968445	0.473172	0.59764	0.058108	0.598714	0.295398	0.320971	0.215271	0.816821	0.272323	0.145762	0.481677	0.538121
3.6655	0.258245	0.254907	0.536227	0.970591	0.470454	0.594049	0.05784	0.600848	0.298841	0.325845	0.214836	0.816063	0.273402	0.146362	0.480046	0.537966
3.666	0.257165	0.253688	0.536602	0.972678	0.467707	0.590439	0.057566	0.602955	0.302277	0.330725	0.21445	0.815283	0.274469	0.14698	0.478378	0.537754
3.6665	0.256045	0.252488	0.537006	0.974705	0.464929	0.58681	0.057289	0.605037	0.305705	0.335607	0.214112	0.814482	0.275523	0.147615	0.47667	0.537484
3.667	0.254884	0.251307	0.537438	0.976671	0.462122	0.583164	0.057006	0.607091	0.309121	0.34049	0.213821	0.813659	0.276564	0.148268	0.474924	0.537157
3.6675	0.253684	0.250143	0.537898	0.978577	0.459286	0.579504	0.056718	0.609119	0.312525	0.345371	0.213577	0.812816	0.277592	0.148938	0.473138	0.536772
3.668	0.252446	0.248996	0.538386	0.980422	0.456422	0.57583	0.056426	0.611119	0.315913	0.350247	0.213379	0.811953	0.278607	0.149623	0.471313	0.536329
3.6685	0.25117	0.247865	0.538903	0.982206	0.45353	0.572145	0.056129	0.613092	0.319284	0.355116	0.213228	0.81107	0.27961	0.150325	0.469448	0.535827
3.669	0.249859	0.246751	0.539448	0.983926	0.45061	0.56845	0.055827	0.615037	0.322634	0.359974	0.213122	0.810166	0.2806	0.151042	0.467545	0.535266
3.6695	0.248512	0.245652	0.540022	0.985584	0.447664	0.564746	0.055521	0.616955	0.325963	0.364819	0.213061	0.809242	0.281577	0.151775	0.465604	0.534646
3.67	0.247133	0.244567	0.540623	0.987176	0.44469	0.561034	0.055211	0.618845	0.329266	0.369648	0.213044	0.808296	0.282542	0.152521	0.463627	0.533967
3.6705	0.245722	0.243496	0.541253	0.988702	0.44169	0.557317	0.054896	0.620709	0.332543	0.374457	0.213072	0.807329	0.283495	0.153282	0.461613	0.533228
3.671	0.24428	0.242437	0.541909	0.990161	0.438663	0.553594	0.054577	0.622548	0.33579	0.379243	0.213143	0.806339	0.284437	0.154057	0.459563	0.532429
3.6715	0.24281	0.241391	0.542593	0.991551	0.435609	0.549868	0.054255	0.62436	0.339005	0.384004	0.213256	0.805329	0.285366	0.154845	0.457479	0.531571
3.672	0.241313	0.240356	0.543303	0.99287	0.432529	0.546139	0.053929	0.626147	0.342186	0.388737	0.213411	0.804297	0.286284	0.155646	0.455362	0.530654
3.6725	0.239789	0.239331	0.544039	0.994118	0.429423	0.542408	0.0536	0.62791	0.345331	0.393437	0.213607	0.803243	0.28719	0.15646	0.453211	0.529679
3.673	0.238241	0.238315	0.5448	0.995293	0.426292	0.538675	0.053268	0.629648	0.348437	0.398102	0.213843	0.802168	0.288085	0.157287	0.451029	0.528645
3.6735	0.236671	0.237308	0.545585	0.996391	0.423134	0.534943	0.052933	0.631363	0.351503	0.402728	0.214118	0.801071	0.288969	0.158127	0.448817	0.527554
3.674	0.235079	0.236309	0.546392	0.997412	0.41995	0.531211	0.052597	0.633056	0.354527	0.407312	0.214432	0.799952	0.289841	0.158978	0.446575	0.526404
3.6745	0.233467	0.235316	0.547221	0.998353	0.416741	0.527482	0.052257	0.634728	0.357505	0.41185	0.214783	0.798811	0.290702	0.15984	0.444305	0.525198
3.675	0.231836	0.23433	0.54807	0.999213	0.413506	0.523757	0.051916	0.636379	0.360437	0.416337	0.215171	0.797646	0.291552	0.160714	0.442008	0.523933
3.6755	0.230188	0.233348	0.548937	0.999989	0.410245	0.520036	0.051574	0.638011	0.363319	0.420772	0.215594	0.796459	0.292392	0.161598	0.439685	0.522612
3.676	0.228525	0.23237	0.549821	1.000681	0.406958	0.516321	0.05123	0.639624	0.36615	0.425149	0.216051	0.795248	0.29322	0.162493	0.437336	0.521233
3.6765	0.226846	0.231396	0.550719	1.001286	0.403646	0.512613	0.050884	0.64122	0.368926	0.429465	0.216541	0.794013	0.294038	0.163397	0.434962	0.519796
3.677	0.225153	0.230423	0.551631	1.001803	0.400306	0.508915	0.050538	0.642799	0.371647	0.433716	0.217063	0.792754	0.294846	0.164309	0.432566	0.518302
3.6775	0.223448	0.229452	0.552554	1.002232	0.396941	0.505226	0.050191	0.644361	0.374309	0.437898	0.217615	0.79147	0.295644	0.16523	0.430146	0.516751
3.678	0.221732	0.228482	0.553485	1.00257	0.393549	0.501549	0.049843	0.645906	0.37691	0.442008	0.218196	0.790161	0.296432	0.166159	0.427706	0.515141
3.6785	0.220005	0.227512	0.554424	1.002818	0.390131	0.497884	0.049495	0.647434	0.379447	0.446041	0.218804	0.788825	0.29721	0.167094	0.425246	0.513473
3.679	0.218268	0.226541	0.555366	1.002974	0.386687	0.494234	0.049146	0.648945	0.38192	0.449995	0.219439	0.787463	0.297978	0.168036	0.422766	0.511745
3.6795	0.216523	0.225568	0.556311	1.003037	0.383217	0.4906	0.048797	0.650439	0.384324	0.453865	0.220097	0.786074	0.298736	0.168983	0.42027	0.509959
3.68	0.214771	0.224594	0.557255	1.003006	0.379721	0.486982	0.048449	0.651915	0.386658	0.457648	0.220779	0.784656	0.299485	0.169935	0.417756	0.508112
3.6805	0.213013	0.223617	0.558195	1.002881	0.376202	0.483381	0.0481	0.653373	0.388918	0.461341	0.221481	0.783208	0.300224	0.170891	0.415227	0.506205
3.681	0.211249	0.222637	0.559131	1.00266	0.372658	0.4798	0.047753	0.654813	0.391104	0.464941	0.222203	0.781731	0.300953	0.171851	0.412683	0.504238
3.6815	0.209481	0.221654	0.560059	1.002346	0.369091	0.476239	0.047405	0.656233	0.393213	0.468443	0.222942	0.780221	0.301674	0.172815	0.410126	0.502212
3.682	0.20771	0.220667	0.560977	1.001938	0.365502	0.472699	0.047058	0.657632	0.395241	0.471847	0.223696	0.778679	0.302385	0.173781	0.407555	0.500125
3.6825	0.205936	0.219676	0.561883	1.001437	0.36189	0.46918	0.046712	0.659011	0.397188	0.475147	0.224464	0.777102	0.303086	0.17475	0.404972	0.497979
3.683	0.204161	0.218681	0.562774	1.000844	0.358257	0.465684	0.046367	0.660367	0.399052	0.478343	0.225244	0.775489	0.303779	0.175721	0.402377	0.495773
3.6835	0.202385	0.217681	0.56365	1.000159	0.354604	0.46221	0.046022	0.661699	0.400831	0.481429	0.226033	0.773838	0.304462	0.176694	0.399771	0.493509
3.684	0.200609	0.216675	0.564506	0.999383	0.350931	0.458759	0.045679	0.663006	0.402522	0.484405	0.226831	0.772148	0.305135	0.177669	0.397154	0.491186
3.6845	0.198834	0.215665	0.565342	0.998516	0.347239	0.455332	0.045337	0.664286	0.404126	0.487266	0.227633	0.770416	0.305799	0.178645	0.394528	0.488805
3.685	0.197061	0.214649	0.566156	0.99756	0.34353	0.451928	0.044996	0.665537	0.405641	0.49001	0.228439	0.768641	0.306453	0.179623	0.391892	0.486366
3.6855	0.19529	0.213627	0.566944	0.996514	0.339805	0.448547	0.044656	0.666758	0.407066	0.492634	0.229247	0.766821	0.307096	0.180601	0.389248	0.483868
3.686	0.193522	0.2126	0.567707	0.99538	0.336065	0.445191	0.044317	0.667947	0.4084	0.495134	0.230054	0.764954	0.307729	0.18158	0.386594	0.481313
3.6865	0.191757	0.211568	0.56844	0.994156	0.332313	0.441858	0.04398	0.669101	0.409643	0.49751	0.230858	0.763038	0.30835	0.18256	0.383933	0.4787
3.687	0.189996	0.21053	0.569143	0.992842	0.32855	0.438549	0.043644	0.67022	0.410794	0.499757	0.231657	0.761071	0.30896	0.183541	0.381263	0.476029
3.6875	0.18824	0.209488	0.569813	0.991439	0.324778	0.435265	0.043309	0.671302	0.411853	0.501875	0.232449	0.759053	0.309559	0.184522	0.378584	0.473302
3.688	0.186489	0.208441	0.570448	0.989945	0.320998	0.432004	0.042976	0.672344	0.412819	0.503863	0.233232	0.756981	0.310145	0.185505	0.375897	0.470519
3.6885	0.184743	0.20739	0.571047	0.988359	0.317214	0.428767	0.042644	0.673345	0.413691	0.505719	0.234003	0.754855	0.310718	0.186488	0.373201	0.467681
3.689	0.183002	0.206335	0.571607	0.986681	0.313425	0.425555	0.042313	0.674303	0.414471	0.507442	0.234761	0.752673	0.311278	0.187472	0.370497	0.46479
3.6895	0.181268	0.205277	0.572126	0.984908	0.309635	0.422366	0.041984	0.675218	0.415156	0.509034	0.235504	0.750434	0.311824	0.188456	0.367783	0.461847
3.69	0.17954	0.204216	0.572603	0.98304	0.305844	0.419201	0.041655	0.676087	0.415747	0.510493	0.23623	0.748138	0.312356	0.18944	0.36506	0.458853
3.6905	0.177818	0.203154	0.573036	0.981074	0.302054	0.41606	0.041329	0.67691	0.416244	0.511821	0.236936	0.745783	0.312872	0.190425	0.362328	0.45581
3.691	0.176104	0.20209	0.573423	0.97901	0.298267	0.412943	0.041003	0.677686	0.416646	0.513018	0.23762	0.743368	0.313373	0.191409	0.359587	0.452721
3.6915	0.174396	0.201025	0.573761	0.976846	0.294484	0.40985	0.040679	0.678414	0.416954	0.514086	0.238281	0.740894	0.313858	0.192394	0.356836	0.449588
3.692	0.172696	0.19996	0.574049	0.974581	0.290708	0.40678	0.040356	0.679093	0.417168	0.515025	0.238917	0.738359	0.314326	0.193378	0.354077	0.446412
3.6925	0.171003	0.198895	0.574284	0.972215	0.286939	0.403733	0.040034	0.679724	0.417291	0.515836	0.239525	0.735763	0.314776	0.194361	0.351309	0.443195
3.693	0.169317	0.19783	0.574464	0.969746	0.28318	0.400709	0.039714	0.680305	0.417322	0.51652	0.240103	0.733107	0.315209	0.195343	0.348532	0.43994
3.6935	0.167639	0.196767	0.574586	0.967174	0.279432	0.397706	0.039395	0.680836	0.417266	0.517078	0.24065	0.73039	0.315623	0.196325	0.345747	0.436649
3.694	0.165969	0.195705	0.574647	0.964499	0.275697	0.394726	0.039078	0.681316	0.417123	0.517512	0.241164	0.72761	0.316019	0.197304	0.342954	0.433323
3.6945	0.164307	0.194646	0.574646	0.961721	0.271976	0.391766	0.038762	0.681744	0.416896	0.517821	0.241642	0.724769	0.316396	0.198282	0.340152	0.429963
3.695	0.162653	0.193589	0.57458	0.95884	0.268273	0.388828	0.038448	0.682119	0.416588	0.518009	0.242083	0.721866	0.316754	0.199257	0.337344	0.426573
3.6955	0.161006	0.192534	0.574447	0.955856	0.264587	0.385909	0.038136	0.682442	0.416202	0.518076	0.242484	0.718902	0.317092	0.200229	0.334528	0.423153
3.696	0.159368	0.191483	0.574243	0.95277	0.260921	0.383011	0.037825	0.682711	0.415741	0.518024	0.242844	0.715877	0.317411	0.201198	0.331705	0.419705
3.6965	0.157737	0.190436	0.573968	0.949581	0.257277	0.380133	0.037516	0.682925	0.415207	0.517856	0.24316	0.712793	0.317709	0.202163	0.328875	0.41623
3.697	0.156114	0.189393	0.573618	0.94629	0.253655	0.377275	0.037209	0.683084	0.414602	0.517573	0.243432	0.709651	0.317987	0.203123	0.326039	0.412731
3.6975	0.1545	0.188354	0.573193	0.942897	0.250058	0.374437	0.036904	0.683188	0.413929	0.517179	0.243656	0.706453	0.318244	0.204078	0.323196	0.409209
3.698	0.152893	0.187319	0.57269	0.939402	0.246487	0.371619	0.036601	0.683237	0.41319	0.516676	0.243831	0.703199	0.318479	0.205028	0.320347	0.405665
3.6985	0.151294	0.186289	0.572108	0.935806	0.242944	0.368821	0.036301	0.683231	0.412388	0.516067	0.243956	0.699891	0.318691	0.205971	0.317492	0.402102
3.699	0.149703	0.185264	0.571447	0.932108	0.239428	0.366044	0.036002	0.68317	0.411524	0.515356	0.244026	0.69653	0.318881	0.206908	0.31463	0.398522
3.6995	0.14812	0.184244	0.570703	0.92831	0.235943	0.363285	0.035706	0.683055	0.4106	0.514545	0.244043	0.693118	0.319048	0.207837	0.311763	0.394927
3.7	0.146544	0.183229	0.569877	0.924411	0.232489	0.360547	0.035412	0.682886	0.409618	0.51364	0.244002	0.689658	0.319191	0.208758	0.30889	0.391319
3.7005	0.144977	0.182219	0.568966	0.920411	0.229066	0.357828	0.035121	0.682664	0.408581	0.512642	0.243903	0.686151	0.31931	0.209669	0.306013	0.3877
3.701	0.143417	0.181215	0.567969	0.916309	0.225677	0.355127	0.034833	0.682391	0.407491	0.511557	0.243744	0.682599	0.319404	0.210572	0.303133	0.384072
3.7015	0.141865	0.180216	0.566886	0.912106	0.222322	0.352446	0.034548	0.682066	0.406349	0.510387	0.243523	0.679004	0.319474	0.211464	0.300249	0.380438
3.702	0.14032	0.179222	0.565715	0.9078	0.219002	0.349784	0.034266	0.681692	0.405158	0.509137	0.243238	0.675369	0.319519	0.212345	0.297364	0.3768
3.7025	0.138783	0.178234	0.564455	0.903392	0.215718	0.34714	0.033987	0.681269	0.403921	0.507811	0.242888	0.671693	0.319539	0.213216	0.294478	0.373161
3.703	0.137254	0.177251	0.563109	0.898883	0.212471	0.344515	0.033712	0.680797	0.40264	0.506411	0.242472	0.66798	0.319534	0.214074	0.291594	0.369523
3.7035	0.135731	0.176274	0.561675	0.894272	0.209262	0.341907	0.033441	0.680279	0.401317	0.504941	0.241987	0.66423	0.319505	0.21492	0.288712	0.365887
3.704	0.134216	0.175302	0.560154	0.889561	0.206091	0.339318	0.033174	0.679713	0.399955	0.503405	0.241433	0.660445	0.319451	0.215753	0.285834	0.362257
3.7045	0.132709	0.174336	0.558548	0.884749	0.202959	0.336745	0.032911	0.679103	0.398557	0.501806	0.240809	0.656625	0.319373	0.216572	0.282961	0.358633
3.705	0.131209	0.173376	0.556857	0.879838	0.199867	0.334189	0.032652	0.678448	0.397125	0.500147	0.240116	0.652772	0.31927	0.217378	0.280095	0.355019
3.7055	0.129717	0.172423	0.555081	0.874829	0.196815	0.33165	0.032399	0.677751	0.395662	0.498431	0.239354	0.648886	0.319143	0.218168	0.277238	0.351415
3.706	0.128233	0.171476	0.553223	0.869723	0.193804	0.329126	0.03215	0.677011	0.394171	0.496662	0.238523	0.64497	0.318992	0.218944	0.274389	0.347825
3.7065	0.126757	0.170536	0.551283	0.864522	0.190834	0.326617	0.031906	0.676232	0.392653	0.494843	0.237623	0.641024	0.318816	0.219703	0.271551	0.344249
3.707	0.12529	0.169603	0.549263	0.859228	0.187907	0.324122	0.031667	0.675414	0.391112	0.492976	0.236657	0.637049	0.318616	0.220445	0.268725	0.340689
3.7075	0.123832	0.168677	0.547165	0.853842	0.185022	0.321641	0.031434	0.67456	0.38955	0.491066	0.235624	0.633045	0.318392	0.22117	0.265911	0.337148
3.708	0.122383	0.167759	0.54499	0.848367	0.18218	0.319173	0.031207	0.673671	0.387968	0.489115	0.234526	0.629015	0.318145	0.221877	0.263111	0.333626
3.7085	0.120945	0.166847	0.542739	0.842803	0.179382	0.316716	0.030986	0.672747	0.38637	0.487125	0.233365	0.624957	0.317875	0.222564	0.260326	0.330126
3.709	0.119517	0.165944	0.540415	0.837153	0.176628	0.31427	0.03077	0.671791	0.384756	0.485101	0.232144	0.620874	0.317582	0.223232	0.257557	0.326648
3.7095	0.1181	0.165048	0.538019	0.831419	0.173919	0.311834	0.030561	0.670804	0.383129	0.483045	0.230864	0.616765	0.317268	0.223879	0.254806	0.323196
3.71	0.116695	0.164161	0.535553	0.825602	0.171254	0.309406	0.030359	0.669787	0.381491	0.480959	0.229528	0.612632	0.316931	0.224505	0.252072	0.319769
3.7105	0.115304	0.163282	0.533019	0.819703	0.168635	0.306987	0.030163	0.66874	0.379843	0.478847	0.228139	0.608474	0.316572	0.225109	0.249358	0.31637
3.711	0.113926	0.162411	0.530418	0.813724	0.166061	0.304574	0.029973	0.667664	0.378186	0.47671	0.226698	0.604292	0.316192	0.22569	0.246665	0.313
3.7115	0.112562	0.161549	0.527754	0.807668	0.163534	0.302167	0.029791	0.66656	0.376523	0.474552	0.225209	0.600087	0.31579	0.226247	0.243993	0.30966
3.712	0.111214	0.160697	0.525026	0.801537	0.161053	0.299765	0.029616	0.665428	0.374855	0.472374	0.223673	0.595857	0.315367	0.226779	0.241343	0.306351
3.7125	0.109881	0.159854	0.522239	0.795334	0.158619	0.297368	0.029449	0.664269	0.373182	0.47018	0.222093	0.591604	0.314922	0.227285	0.238717	0.303075
3.713	0.108565	0.159021	0.519392	0.78906	0.156232	0.294973	0.029288	0.663083	0.371507	0.46797	0.220471	0.587327	0.314456	0.227765	0.236115	0.299833
3.7135	0.107267	0.158197	0.51649	0.782718	0.153892	0.292582	0.029135	0.661869	0.36983	0.465748	0.218809	0.583025	0.313969	0.228216	0.233538	0.296625
3.714	0.105987	0.157384	0.513534	0.776311	0.151599	0.290194	0.028991	0.660629	0.368152	0.463515	0.217109	0.578698	0.313459	0.228639	0.230988	0.293452
3.7145	0.104726	0.156582	0.510525	0.76984	0.149354	0.287808	0.028853	0.659362	0.366475	0.461274	0.215372	0.574346	0.312927	0.229033	0.228463	0.290316
3.715	0.103484	0.15579	0.507466	0.763309	0.147157	0.285425	0.028724	0.658069	0.364799	0.459026	0.213602	0.569969	0.312373	0.229397	0.225966	0.287216
3.7155	0.102263	0.155009	0.504359	0.75672	0.145008	0.283043	0.028603	0.65675	0.363126	0.456774	0.2118	0.565565	0.311797	0.229731	0.223497	0.284154
3.716	0.101062	0.154239	0.501205	0.750075	0.142908	0.280663	0.028491	0.655406	0.361456	0.45452	0.209967	0.561134	0.311197	0.230034	0.221056	0.28113
3.7165	0.099883	0.153479	0.498006	0.743376	0.140855	0.278286	0.028387	0.654036	0.35979	0.452265	0.208107	0.556677	0.310575	0.230307	0.218645	0.278145
3.717	0.098727	0.152731	0.494764	0.736626	0.138851	0.27591	0.028291	0.652641	0.35813	0.450012	0.20622	0.552191	0.309929	0.230549	0.216262	0.275198
3.7175	0.097593	0.151994	0.491481	0.729825	0.136895	0.273537	0.028204	0.651221	0.356475	0.447763	0.204308	0.547677	0.30926	0.23076	0.21391	0.272292
3.718	0.096482	0.151267	0.488157	0.722978	0.134988	0.271167	0.028125	0.649777	0.354828	0.44552	0.202373	0.543134	0.308568	0.230939	0.211588	0.269425
3.7185	0.095395	0.150552	0.484795	0.716084	0.133129	0.2688	0.028056	0.648309	0.353189	0.443284	0.200418	0.538561	0.307853	0.231087	0.209298	0.266599
3.719	0.094333	0.149848	0.481396	0.709145	0.131319	0.266438	0.027996	0.646817	0.351558	0.441058	0.198442	0.533957	0.307114	0.231203	0.20704	0.263815
3.7195	0.093297	0.149154	0.477962	0.702164	0.129557	0.264081	0.027944	0.645301	0.349937	0.438842	0.19645	0.529323	0.306352	0.231286	0.204815	0.261072
3.72	0.092286	0.148471	0.474493	0.695142	0.127843	0.261731	0.027902	0.643763	0.348326	0.436638	0.194441	0.524658	0.305565	0.231338	0.202624	0.258373
3.7205	0.091301	0.147798	0.470991	0.68808	0.126177	0.25939	0.027869	0.642203	0.346725	0.434448	0.192417	0.519963	0.304755	0.231359	0.200468	0.255717
3.721	0.090343	0.147136	0.467457	0.680979	0.124559	0.257058	0.027845	0.640622	0.345135	0.432273	0.19038	0.515236	0.30392	0.231348	0.198347	0.253106
3.7215	0.089413	0.146484	0.463892	0.67384	0.122989	0.254737	0.027831	0.639018	0.343557	0.430114	0.188332	0.510479	0.30306	0.231306	0.196262	0.25054
3.722	0.08851	0.145841	0.460297	0.666664	0.121466	0.252428	0.027827	0.637394	0.341991	0.427972	0.186273	0.505691	0.302176	0.231233	0.194213	0.248021
3.7225	0.087636	0.145207	0.456674	0.659454	0.119991	0.250132	0.027832	0.635748	0.340436	0.425849	0.184206	0.500873	0.301267	0.23113	0.192203	0.245549
3.723	0.086791	0.144583	0.453022	0.652209	0.118562	0.247852	0.027847	0.634082	0.338894	0.423745	0.182131	0.496024	0.300333	0.230997	0.19023	0.243125
3.7235	0.085975	0.143966	0.449343	0.644931	0.117181	0.245587	0.027872	0.632395	0.337365	0.421661	0.18005	0.491145	0.299375	0.230833	0.188295	0.240749
3.724	0.085189	0.143358	0.445637	0.63762	0.115845	0.243339	0.027907	0.630688	0.335849	0.419598	0.177964	0.486237	0.298393	0.23064	0.1864	0.238423
3.7245	0.084432	0.142758	0.441905	0.630279	0.114556	0.24111	0.027952	0.628959	0.334347	0.417558	0.175875	0.4813	0.297386	0.230417	0.184544	0.236148
3.725	0.083706	0.142165	0.438148	0.622908	0.113313	0.238901	0.028008	0.627209	0.332858	0.415541	0.173783	0.476335	0.296356	0.230164	0.182729	0.233923
3.7255	0.083011	0.141578	0.434366	0.615509	0.112115	0.236712	0.028073	0.625437	0.331384	0.413547	0.171689	0.471343	0.295302	0.229882	0.180954	0.23175
3.726	0.082348	0.140998	0.430559	0.608082	0.110962	0.234546	0.028149	0.623642	0.329925	0.411579	0.169595	0.466324	0.294224	0.22957	0.179221	0.229631
3.7265	0.081715	0.140424	0.426728	0.600629	0.109855	0.232403	0.028236	0.621824	0.328481	0.409636	0.167501	0.461278	0.293124	0.22923	0.17753	0.227565
3.727	0.081115	0.139854	0.422873	0.593151	0.108791	0.230284	0.028333	0.619982	0.327053	0.407718	0.165408	0.456206	0.292	0.22886	0.175883	0.225555
3.7275	0.080547	0.13929	0.418995	0.585651	0.107771	0.228191	0.028441	0.618115	0.32564	0.405827	0.163318	0.451109	0.290853	0.228462	0.174279	0.223602
3.728	0.080011	0.138729	0.415093	0.578129	0.106795	0.226125	0.028559	0.616222	0.324244	0.403962	0.161231	0.445988	0.289684	0.228035	0.172719	0.221705
3.7285	0.079509	0.138171	0.41117	0.570588	0.105862	0.224086	0.028688	0.614303	0.322863	0.402124	0.159148	0.440843	0.288492	0.22758	0.171205	0.219868
3.729	0.079039	0.137617	0.407223	0.563031	0.104971	0.222075	0.028829	0.612358	0.321499	0.400314	0.15707	0.435676	0.287279	0.227097	0.169737	0.21809
3.7295	0.078602	0.137064	0.403254	0.555458	0.104123	0.220095	0.02898	0.610385	0.320151	0.39853	0.154997	0.430486	0.286044	0.226588	0.168315	0.216373
3.73	0.0782	0.136512	0.399264	0.547873	0.103316	0.218145	0.029142	0.608385	0.31882	0.396773	0.15293	0.425276	0.284787	0.226052	0.166941	0.214717
3.7305	0.07783	0.135961	0.395251	0.540277	0.102549	0.216227	0.029315	0.606358	0.317505	0.395044	0.150869	0.420047	0.28351	0.225491	0.165616	0.213124
3.731	0.077495	0.13541	0.391217	0.532674	0.101823	0.214341	0.029499	0.604303	0.316207	0.393341	0.148816	0.414799	0.282212	0.224905	0.164339	0.211595
3.7315	0.077194	0.134858	0.387163	0.525064	0.101137	0.212489	0.029695	0.602221	0.314925	0.391664	0.14677	0.409533	0.280893	0.224295	0.163113	0.21013
3.732	0.076928	0.134304	0.383088	0.517451	0.10049	0.210672	0.029902	0.600111	0.313659	0.390013	0.144733	0.40425	0.279554	0.223662	0.161936	0.208731
3.7325	0.076696	0.13375	0.378994	0.509838	0.099881	0.208889	0.03012	0.597974	0.312409	0.388388	0.142705	0.398952	0.278195	0.223007	0.16081	0.207398
3.733	0.076498	0.133193	0.374881	0.502226	0.099309	0.207142	0.030349	0.595811	0.311174	0.386787	0.140685	0.393639	0.276817	0.22233	0.159736	0.206131
3.7335	0.076335	0.132634	0.370751	0.494619	0.098775	0.205431	0.030589	0.593623	0.309955	0.38521	0.138675	0.388313	0.275419	0.221633	0.158714	0.204932
3.734	0.076208	0.132073	0.366604	0.487018	0.098277	0.203757	0.030841	0.591409	0.308749	0.383656	0.136675	0.382975	0.274003	0.220915	0.157744	0.203801
3.7345	0.076115	0.13151	0.362443	0.479427	0.097815	0.202121	0.031105	0.58917	0.307558	0.382124	0.134685	0.377627	0.272568	0.220179	0.156827	0.202739
3.735	0.076058	0.130944	0.358267	0.471847	0.097387	0.200523	0.031379	0.586906	0.306379	0.380613	0.132706	0.372271	0.271116	0.219425	0.155964	0.201747
3.7355	0.076035	0.130376	0.354079	0.464282	0.096993	0.198963	0.031665	0.584618	0.305213	0.379122	0.130737	0.366909	0.269645	0.218653	0.155154	0.200825
3.736	0.076048	0.129804	0.349879	0.456733	0.096633	0.197441	0.031962	0.582305	0.304059	0.377649	0.12878	0.361544	0.268158	0.217865	0.154398	0.199974
3.7365	0.076097	0.12923	0.345668	0.449202	0.096306	0.195959	0.03227	0.579968	0.302915	0.376192	0.126833	0.356176	0.266652	0.21706	0.153697	0.199194
3.737	0.07618	0.128652	0.341447	0.441693	0.096011	0.194516	0.03259	0.577607	0.301782	0.374751	0.124899	0.350808	0.26513	0.216241	0.153051	0.198486
3.7375	0.076299	0.128071	0.337217	0.434207	0.095748	0.193113	0.032921	0.575221	0.300657	0.373324	0.122978	0.345443	0.26359	0.215408	0.15246	0.19785
3.738	0.076454	0.127487	0.33298	0.426746	0.095516	0.19175	0.033263	0.572812	0.299542	0.37191	0.121069	0.340081	0.262033	0.214561	0.151925	0.197287
3.7385	0.076643	0.126901	0.328735	0.419312	0.095315	0.190427	0.033616	0.570378	0.298433	0.370506	0.119173	0.334726	0.260459	0.213701	0.151446	0.196797
3.739	0.076868	0.126312	0.324483	0.411908	0.095144	0.189145	0.03398	0.56792	0.297331	0.369111	0.117291	0.329378	0.258867	0.212829	0.151022	0.19638
3.7395	0.077128	0.125721	0.320227	0.404536	0.095003	0.187902	0.034355	0.565439	0.296235	0.367724	0.115424	0.324041	0.257258	0.211946	0.150655	0.196038
3.74	0.077423	0.125127	0.315966	0.397198	0.094891	0.186701	0.034741	0.562933	0.295144	0.366342	0.113572	0.318716	0.255632	0.211051	0.150344	0.195769
3.7405	0.077753	0.124533	0.311701	0.389897	0.094808	0.18554	0.035138	0.560403	0.294056	0.364965	0.111735	0.313405	0.253987	0.210147	0.150089	0.195575
3.741	0.078117	0.123937	0.307433	0.382633	0.094753	0.18442	0.035546	0.557849	0.292971	0.363589	0.109914	0.308111	0.252324	0.209233	0.149891	0.195455
3.7415	0.078516	0.123339	0.303165	0.375409	0.094726	0.183341	0.035964	0.555269	0.291887	0.362215	0.108109	0.302835	0.250643	0.208309	0.149749	0.19541
3.742	0.07895	0.12274	0.298895	0.368228	0.094725	0.182302	0.036393	0.552665	0.290803	0.360838	0.106322	0.297579	0.248944	0.207378	0.149664	0.195439
3.7425	0.079418	0.122141	0.294627	0.361091	0.094752	0.181305	0.036832	0.550034	0.289718	0.359459	0.104551	0.292346	0.247226	0.206438	0.149634	0.195542
3.743	0.079919	0.12154	0.29036	0.354001	0.094804	0.180348	0.037282	0.547378	0.288632	0.358074	0.102799	0.287137	0.245488	0.205491	0.149662	0.19572
3.7435	0.080455	0.120939	0.286098	0.34696	0.094882	0.179432	0.037742	0.544694	0.287543	0.356682	0.101065	0.281954	0.243731	0.204537	0.149745	0.195972
3.744	0.081023	0.120337	0.28184	0.339968	0.094985	0.178557	0.038212	0.541983	0.286451	0.35528	0.099349	0.276799	0.241955	0.203576	0.149884	0.196298
3.7445	0.081625	0.119734	0.277588	0.33303	0.095113	0.177722	0.038692	0.539242	0.285356	0.353867	0.097652	0.271674	0.24016	0.202609	0.150079	0.196698
3.745	0.08226	0.119131	0.273345	0.326145	0.095265	0.176928	0.039182	0.536473	0.284256	0.352442	0.095974	0.26658	0.238346	0.201636	0.15033	0.197171
3.7455	0.082928	0.118527	0.269111	0.319317	0.095442	0.176175	0.039681	0.533672	0.283152	0.351002	0.094316	0.261518	0.236512	0.200657	0.150636	0.197717
3.746	0.083628	0.117923	0.264889	0.312547	0.095641	0.175463	0.04019	0.53084	0.282042	0.349546	0.092677	0.256491	0.234661	0.199672	0.150997	0.198336
3.7465	0.08436	0.117318	0.260679	0.305836	0.095864	0.174791	0.040709	0.527974	0.280926	0.348073	0.091059	0.251499	0.23279	0.198683	0.151414	0.199027
3.747	0.085124	0.116712	0.256485	0.299186	0.09611	0.174159	0.041237	0.525074	0.279804	0.346581	0.089461	0.246545	0.230902	0.197688	0.151885	0.199789
3.7475	0.085919	0.116107	0.252306	0.292599	0.096378	0.173567	0.041774	0.522138	0.278676	0.34507	0.087883	0.241629	0.228997	0.196689	0.152411	0.200623
3.748	0.086745	0.115501	0.248146	0.286077	0.096667	0.173015	0.04232	0.519165	0.27754	0.343537	0.086327	0.236753	0.227074	0.195685	0.152991	0.201527
3.7485	0.087602	0.114895	0.244005	0.279619	0.096978	0.172503	0.042875	0.516153	0.276398	0.341983	0.084791	0.231917	0.225135	0.194678	0.153626	0.2025
3.749	0.088489	0.114289	0.239885	0.273228	0.097309	0.172031	0.043438	0.513102	0.275247	0.340406	0.083277	0.227124	0.223179	0.193667	0.154313	0.203543
3.7495	0.089406	0.113682	0.235786	0.266906	0.097661	0.171597	0.04401	0.510011	0.274088	0.338804	0.081784	0.222373	0.221207	0.192653	0.155054	0.204653
3.75	0.090352	0.113076	0.231712	0.260652	0.098032	0.171202	0.044591	0.506877	0.272921	0.337178	0.080312	0.217667	0.219219	0.191636	0.155847	0.205831
3.7505	0.091327	0.112469	0.227662	0.254469	0.098423	0.170845	0.045179	0.5037	0.271745	0.335525	0.078862	0.213005	0.217215	0.190617	0.156693	0.207075
3.751	0.092331	0.111862	0.223638	0.248356	0.098832	0.170526	0.045775	0.50048	0.270561	0.333845	0.077434	0.20839	0.215196	0.189596	0.15759	0.208384
3.7515	0.093363	0.111256	0.21964	0.242316	0.099258	0.170243	0.04638	0.497217	0.269369	0.332136	0.076028	0.203821	0.213162	0.188573	0.158539	0.209758
3.752	0.094422	0.110649	0.215671	0.236348	0.099702	0.169997	0.046991	0.493908	0.268169	0.330398	0.074644	0.199299	0.211114	0.187548	0.159538	0.211195
3.7525	0.095508	0.110042	0.211732	0.230455	0.100163	0.169787	0.04761	0.490556	0.266961	0.328631	0.073282	0.194825	0.209052	0.186522	0.160587	0.212694
3.753	0.096621	0.109434	0.207822	0.224635	0.100639	0.169612	0.048236	0.487159	0.265746	0.326833	0.071943	0.190401	0.206976	0.185495	0.161687	0.214254
3.7535	0.097759	0.108827	0.203944	0.218891	0.101131	0.169472	0.048869	0.483717	0.264524	0.325004	0.070625	0.186025	0.204888	0.184468	0.162835	0.215874
3.754	0.098923	0.108219	0.200098	0.213222	0.101636	0.169365	0.049509	0.480231	0.263296	0.323145	0.06933	0.1817	0.202788	0.183441	0.164033	0.217553
3.7545	0.100111	0.10761	0.196285	0.207629	0.102156	0.169291	0.050155	0.476699	0.262062	0.321255	0.068056	0.177426	0.200676	0.182414	0.165279	0.219288
3.755	0.101323	0.107	0.192507	0.202113	0.102689	0.169249	0.050807	0.473122	0.260822	0.319334	0.066805	0.173202	0.198555	0.181388	0.166572	0.22108
3.7555	0.102558	0.10639	0.188763	0.196673	0.103233	0.169238	0.051465	0.4695	0.259576	0.317382	0.065576	0.169031	0.196423	0.180363	0.167912	0.222925
3.756	0.103816	0.105778	0.185055	0.191311	0.103789	0.169258	0.052129	0.465833	0.258325	0.315399	0.06437	0.164911	0.194283	0.17934	0.169299	0.224824
3.7565	0.105096	0.105165	0.181383	0.186027	0.104355	0.169307	0.052798	0.462122	0.257069	0.313386	0.063185	0.160845	0.192135	0.178318	0.170731	0.226774
3.757	0.106396	0.104551	0.177749	0.18082	0.104931	0.169385	0.053472	0.458367	0.255809	0.311341	0.062022	0.156831	0.18998	0.177298	0.172208	0.228773
3.7575	0.107717	0.103936	0.174152	0.175692	0.105516	0.16949	0.054152	0.454568	0.254544	0.309265	0.060881	0.152871	0.187819	0.17628	0.17373	0.230821
3.758	0.109058	0.103319	0.170594	0.170641	0.106109	0.169622	0.054835	0.450726	0.253276	0.307158	0.059762	0.148964	0.185652	0.175265	0.175294	0.232915
3.7585	0.110417	0.102701	0.167074	0.165669	0.106709	0.169779	0.055523	0.446841	0.252003	0.30502	0.058665	0.145112	0.183481	0.174253	0.176902	0.235054
3.759	0.111794	0.10208	0.163594	0.160775	0.107314	0.169961	0.056215	0.442914	0.250726	0.302852	0.057589	0.141314	0.181307	0.173243	0.178551	0.237235
3.7595	0.113187	0.101458	0.160153	0.155959	0.107925	0.170167	0.05691	0.438946	0.249445	0.300652	0.056534	0.13757	0.179129	0.172238	0.180241	0.239458
3.76	0.114597	0.100833	0.156752	0.151221	0.10854	0.170395	0.057608	0.434935	0.24816	0.298423	0.055501	0.133882	0.17695	0.171236	0.181972	0.24172
3.7605	0.116021	0.100206	0.153392	0.146561	0.109158	0.170646	0.058309	0.430883	0.246872	0.296163	0.054489	0.130248	0.174768	0.170237	0.183741	0.244019
3.761	0.11746	0.099577	0.150073	0.14198	0.109778	0.170919	0.059013	0.426791	0.24558	0.293875	0.053497	0.126669	0.172587	0.169243	0.185548	0.246354
3.7615	0.118912	0.098945	0.146794	0.137475	0.110399	0.171212	0.059718	0.42266	0.244284	0.291558	0.052526	0.123146	0.170405	0.168253	0.187392	0.248723
3.762	0.120375	0.09831	0.143557	0.133049	0.111021	0.171526	0.060425	0.41849	0.242985	0.289212	0.051575	0.119677	0.168223	0.167267	0.189271	0.251124
3.7625	0.12185	0.097672	0.140362	0.128699	0.111642	0.171859	0.061133	0.414283	0.241683	0.28684	0.050645	0.116264	0.166043	0.166286	0.191185	0.253553
3.763	0.123335	0.097032	0.137208	0.124427	0.112262	0.172213	0.061842	0.41004	0.240377	0.28444	0.049734	0.112907	0.163865	0.165309	0.193133	0.256011
3.7635	0.124829	0.096389	0.134096	0.120231	0.112878	0.172585	0.062552	0.405763	0.239069	0.282014	0.048843	0.109604	0.161689	0.164337	0.195112	0.258493
3.764	0.126331	0.095743	0.131025	0.116112	0.113491	0.172976	0.063261	0.401453	0.237759	0.279561	0.047972	0.106357	0.159517	0.16337	0.197122	0.260999
3.7645	0.127839	0.095094	0.127997	0.112069	0.114099	0.173386	0.063969	0.39711	0.236445	0.277084	0.04712	0.103165	0.157348	0.16241	0.199162	0.263525
3.765	0.129352	0.094443	0.125011	0.108101	0.114702	0.173813	0.064677	0.392738	0.23513	0.274583	0.046286	0.100029	0.155185	0.161455	0.201229	0.266069
3.7655	0.13087	0.09379	0.122068	0.10421	0.115299	0.174258	0.065383	0.388336	0.233813	0.272058	0.045472	0.096947	0.153026	0.160507	0.203323	0.26863
3.766	0.132391	0.093135	0.119166	0.100393	0.115887	0.174721	0.066087	0.383906	0.232493	0.269512	0.044675	0.09392	0.150874	0.159567	0.205443	0.271203
3.7665	0.133914	0.092477	0.116308	0.096651	0.116468	0.175201	0.066789	0.379451	0.231173	0.266944	0.043897	0.090948	0.148728	0.158634	0.207586	0.273788
3.767	0.135437	0.091818	0.113491	0.092983	0.117039	0.175698	0.067488	0.374972	0.229851	0.264357	0.043137	0.08803	0.14659	0.15771	0.209752	0.276381
3.7675	0.13696	0.091157	0.110718	0.089389	0.117599	0.176213	0.068185	0.370472	0.228529	0.261751	0.042394	0.085166	0.144461	0.156794	0.211939	0.27898
3.768	0.138481	0.090494	0.107988	0.085869	0.118149	0.176745	0.068877	0.365953	0.227206	0.259127	0.041668	0.082356	0.14234	0.155888	0.214145	0.281583
3.7685	0.139999	0.08983	0.1053	0.082421	0.118686	0.177294	0.069565	0.361418	0.225883	0.256486	0.040959	0.0796	0.14023	0.154991	0.216369	0.284186
3.769	0.141512	0.089164	0.102656	0.079046	0.119211	0.177861	0.070249	0.356869	0.224561	0.25383	0.040266	0.076898	0.13813	0.154104	0.218609	0.286788
3.7695	0.14302	0.088497	0.100055	0.075743	0.119722	0.178446	0.070928	0.352309	0.223239	0.251159	0.03959	0.074248	0.136042	0.153229	0.220864	0.289385
3.77	0.14452	0.087829	0.097497	0.072511	0.12022	0.179047	0.071601	0.34774	0.221917	0.248474	0.03893	0.071652	0.133966	0.152364	0.223131	0.291976
3.7705	0.146012	0.08716	0.094983	0.06935	0.120703	0.179666	0.072269	0.343164	0.220597	0.245776	0.038285	0.069108	0.131903	0.151511	0.22541	0.294557
3.771	0.147494	0.086489	0.092512	0.066259	0.121171	0.180302	0.07293	0.338584	0.219277	0.243065	0.037656	0.066616	0.129854	0.15067	0.227698	0.297127
3.7715	0.148965	0.085818	0.090084	0.063237	0.121623	0.180954	0.073584	0.334001	0.217958	0.240342	0.037041	0.064176	0.127819	0.149842	0.229994	0.299683
3.772	0.150424	0.085146	0.0877	0.060285	0.122058	0.181624	0.07423	0.329418	0.21664	0.237608	0.036441	0.061788	0.125798	0.149027	0.232295	0.302224
3.7725	0.151869	0.084472	0.08536	0.057401	0.122477	0.182309	0.074869	0.324837	0.215323	0.234864	0.035855	0.059451	0.123792	0.148226	0.2346	0.304748
3.773	0.153299	0.083798	0.083063	0.054584	0.122878	0.183011	0.075499	0.32026	0.214007	0.232109	0.035283	0.057164	0.121803	0.147438	0.236907	0.307252
