datacolumns 17
datarows 1067
time	addmag_r	bicfemlh_r	gaslat_r	gasmed_r	gmax_r	gmed_r	gra_r	perlong_r	recfem_r	sar_r	semimem_r	sol_r	tfl_r	tibant_r	vaslat_r	vasmed_r
2.578	0.130315	0.13419	0.005164	0.005894	0.020888	0.053815	0.088425	0.010555	0.002914	0.016707	0.137544	0.003351	0.003609	0.05267	0.003727	0.003896
2.5785	0.130352	0.134691	0.005149	0.005886	0.020991	0.053908	0.089289	0.010546	0.002922	0.016443	0.137487	0.003356	0.003601	0.052621	0.003723	0.003879
2.579	0.130382	0.13517	0.005135	0.005878	0.021093	0.054002	0.090142	0.010537	0.00293	0.016189	0.137405	0.003361	0.003594	0.052567	0.00372	0.003861
2.5795	0.130406	0.135628	0.005121	0.005869	0.021191	0.054096	0.090984	0.010528	0.002938	0.015945	0.137298	0.003366	0.003589	0.052507	0.003716	0.003843
2.58	0.130422	0.136064	0.005109	0.00586	0.021287	0.05419	0.091814	0.010518	0.002946	0.015709	0.137166	0.003371	0.003585	0.052442	0.003711	0.003825
2.5805	0.130431	0.136477	0.005096	0.005851	0.021381	0.054285	0.092631	0.010508	0.002954	0.015482	0.13701	0.003376	0.003583	0.052371	0.003706	0.003807
2.581	0.130432	0.136869	0.005085	0.005841	0.021471	0.054382	0.093434	0.010497	0.002963	0.015265	0.136829	0.003381	0.003583	0.052295	0.003701	0.003789
2.5815	0.130424	0.137238	0.005074	0.005832	0.021559	0.05448	0.094223	0.010485	0.002972	0.015055	0.136625	0.003386	0.003585	0.052214	0.003696	0.00377
2.582	0.130408	0.137584	0.005063	0.005821	0.021644	0.05458	0.094997	0.010473	0.002981	0.014855	0.136398	0.00339	0.003588	0.052128	0.00369	0.003751
2.5825	0.130384	0.137908	0.005053	0.005811	0.021725	0.054683	0.095754	0.01046	0.00299	0.014663	0.136147	0.003395	0.003593	0.052036	0.003684	0.003733
2.583	0.13035	0.138208	0.005043	0.0058	0.021803	0.054789	0.096495	0.010447	0.002999	0.014479	0.135874	0.0034	0.0036	0.051939	0.003677	0.003714
2.5835	0.130307	0.138485	0.005034	0.005788	0.021878	0.054898	0.097217	0.010432	0.003008	0.014303	0.135579	0.003405	0.003609	0.051837	0.00367	0.003694
2.584	0.130255	0.138739	0.005026	0.005777	0.021949	0.055012	0.097921	0.010417	0.003017	0.014135	0.135262	0.00341	0.003619	0.05173	0.003662	0.003675
2.5845	0.130193	0.138969	0.005018	0.005765	0.022017	0.055129	0.098606	0.010401	0.003027	0.013974	0.134924	0.003414	0.003631	0.051618	0.003654	0.003656
2.585	0.13012	0.139175	0.00501	0.005752	0.022082	0.055252	0.099271	0.010384	0.003037	0.013821	0.134566	0.003419	0.003646	0.0515	0.003646	0.003636
2.5855	0.130038	0.139357	0.005003	0.00574	0.022142	0.055379	0.099914	0.010366	0.003046	0.013675	0.134187	0.003424	0.003662	0.051377	0.003637	0.003616
2.586	0.129946	0.139514	0.004996	0.005726	0.022199	0.055512	0.100536	0.010347	0.003056	0.013537	0.133789	0.003428	0.00368	0.051249	0.003628	0.003596
2.5865	0.129843	0.139645	0.00499	0.005713	0.022252	0.055651	0.101136	0.010328	0.003066	0.013405	0.133371	0.003433	0.0037	0.051116	0.003618	0.003576
2.587	0.129729	0.139751	0.004984	0.005699	0.022301	0.055797	0.101714	0.010307	0.003076	0.01328	0.132934	0.003437	0.003723	0.050978	0.003608	0.003555
2.5875	0.129605	0.13983	0.004978	0.005685	0.022346	0.05595	0.102268	0.010286	0.003087	0.013162	0.132479	0.003442	0.003747	0.050835	0.003597	0.003535
2.588	0.129471	0.139884	0.004973	0.00567	0.022387	0.05611	0.102798	0.010264	0.003097	0.013049	0.132005	0.003446	0.003774	0.050687	0.003586	0.003514
2.5885	0.129325	0.13991	0.004968	0.005655	0.022425	0.056278	0.103305	0.010241	0.003107	0.012944	0.131514	0.00345	0.003802	0.050534	0.003575	0.003493
2.589	0.12917	0.139908	0.004964	0.005639	0.022458	0.056455	0.103788	0.010217	0.003118	0.012844	0.131005	0.003455	0.003833	0.050377	0.003562	0.003472
2.5895	0.129003	0.139879	0.00496	0.005623	0.022487	0.056641	0.104246	0.010192	0.003129	0.01275	0.130479	0.003459	0.003866	0.050215	0.00355	0.00345
2.59	0.128826	0.139823	0.004956	0.005607	0.022511	0.056836	0.10468	0.010167	0.003139	0.012661	0.129937	0.003463	0.003902	0.050049	0.003537	0.003429
2.5905	0.128638	0.139738	0.004953	0.00559	0.022532	0.057041	0.105088	0.010142	0.00315	0.012578	0.129379	0.003467	0.003939	0.049879	0.003524	0.003407
2.591	0.128439	0.139625	0.00495	0.005573	0.022549	0.057257	0.105472	0.010115	0.003161	0.012501	0.128805	0.003471	0.003979	0.049706	0.00351	0.003385
2.5915	0.128228	0.139484	0.004948	0.005555	0.022562	0.057483	0.10583	0.010089	0.003172	0.012429	0.128216	0.003475	0.004022	0.049529	0.003496	0.003363
2.592	0.128007	0.139314	0.004945	0.005537	0.02257	0.057721	0.106162	0.010061	0.003183	0.012361	0.127612	0.003479	0.004066	0.04935	0.003482	0.003341
2.5925	0.127774	0.139116	0.004944	0.005519	0.022575	0.057971	0.106467	0.010034	0.003193	0.012299	0.126994	0.003483	0.004113	0.049169	0.003467	0.003319
2.593	0.127529	0.13889	0.004942	0.0055	0.022575	0.058232	0.106747	0.010006	0.003204	0.012241	0.126363	0.003487	0.004163	0.048985	0.003452	0.003297
2.5935	0.127273	0.138636	0.004941	0.00548	0.022571	0.058507	0.106999	0.009978	0.003215	0.012188	0.125718	0.003491	0.004215	0.0488	0.003437	0.003274
2.594	0.127005	0.138353	0.004941	0.005461	0.022564	0.058794	0.107225	0.00995	0.003226	0.012139	0.12506	0.003495	0.00427	0.048613	0.003421	0.003252
2.5945	0.126725	0.138043	0.004941	0.005441	0.022552	0.059095	0.107424	0.009921	0.003237	0.012094	0.12439	0.003499	0.004327	0.048425	0.003406	0.003229
2.595	0.126433	0.137705	0.004941	0.00542	0.022536	0.059409	0.107596	0.009893	0.003248	0.012053	0.123708	0.003503	0.004387	0.048236	0.003389	0.003207
2.5955	0.126129	0.13734	0.004942	0.005399	0.022516	0.059737	0.107742	0.009864	0.003259	0.012016	0.123014	0.003507	0.00445	0.048047	0.003373	0.003184
2.596	0.125813	0.136948	0.004943	0.005378	0.022492	0.06008	0.10786	0.009836	0.00327	0.011983	0.12231	0.003511	0.004515	0.047858	0.003357	0.003162
2.5965	0.125484	0.13653	0.004944	0.005357	0.022464	0.060437	0.107952	0.009807	0.003281	0.011954	0.121594	0.003515	0.004583	0.047669	0.00334	0.003139
2.597	0.125143	0.136087	0.004947	0.005335	0.022432	0.060809	0.108017	0.009779	0.003292	0.011928	0.120869	0.003519	0.004654	0.047481	0.003323	0.003116
2.5975	0.124789	0.135617	0.004949	0.005313	0.022396	0.061197	0.108055	0.009751	0.003303	0.011905	0.120134	0.003523	0.004727	0.047293	0.003306	0.003094
2.598	0.124423	0.135123	0.004952	0.005291	0.022356	0.0616	0.108068	0.009724	0.003314	0.011885	0.11939	0.003527	0.004803	0.047107	0.003289	0.003071
2.5985	0.124044	0.134604	0.004956	0.005268	0.022312	0.062019	0.108054	0.009697	0.003325	0.011869	0.118637	0.003531	0.004882	0.046923	0.003272	0.003049
2.599	0.123652	0.134061	0.00496	0.005245	0.022265	0.062453	0.108015	0.00967	0.003336	0.011855	0.117877	0.003535	0.004964	0.04674	0.003254	0.003026
2.5995	0.123247	0.133494	0.004965	0.005222	0.022213	0.062904	0.107951	0.009644	0.003347	0.011844	0.117108	0.00354	0.005048	0.046559	0.003237	0.003003
2.6	0.12283	0.132904	0.00497	0.005199	0.022158	0.063371	0.107861	0.009618	0.003358	0.011835	0.116332	0.003544	0.005136	0.046382	0.00322	0.002981
2.6005	0.1224	0.132291	0.004975	0.005175	0.0221	0.063855	0.107746	0.009593	0.003368	0.011829	0.115549	0.003549	0.005226	0.046207	0.003202	0.002959
2.601	0.121957	0.131656	0.004981	0.005152	0.022038	0.064355	0.107606	0.009569	0.003379	0.011825	0.11476	0.003553	0.005319	0.046035	0.003185	0.002936
2.6015	0.121501	0.131001	0.004988	0.005128	0.021973	0.064872	0.107442	0.009545	0.00339	0.011824	0.113965	0.003558	0.005415	0.045867	0.003168	0.002914
2.602	0.121033	0.130325	0.004995	0.005103	0.021904	0.065406	0.107254	0.009522	0.0034	0.011824	0.113164	0.003563	0.005515	0.045702	0.00315	0.002892
2.6025	0.120552	0.129629	0.005003	0.005079	0.021833	0.065957	0.107041	0.0095	0.003411	0.011826	0.112358	0.003568	0.005617	0.045542	0.003133	0.002869
2.603	0.120059	0.128915	0.005011	0.005054	0.021758	0.066526	0.106804	0.009479	0.003421	0.01183	0.111548	0.003573	0.005722	0.045386	0.003116	0.002847
2.6035	0.119554	0.128182	0.00502	0.00503	0.021681	0.067112	0.106543	0.009459	0.003431	0.011835	0.110734	0.003578	0.00583	0.045235	0.003099	0.002825
2.604	0.119038	0.127431	0.005029	0.005005	0.021601	0.067715	0.106259	0.009439	0.003442	0.011841	0.109917	0.003583	0.005942	0.045089	0.003082	0.002803
2.6045	0.11851	0.126662	0.005039	0.00498	0.021519	0.068335	0.105951	0.009421	0.003452	0.011849	0.109097	0.003588	0.006056	0.044948	0.003065	0.002782
2.605	0.11797	0.125878	0.005049	0.004955	0.021434	0.068974	0.10562	0.009404	0.003462	0.011857	0.108274	0.003593	0.006174	0.044812	0.003048	0.00276
2.6055	0.117419	0.125077	0.00506	0.00493	0.021346	0.06963	0.105266	0.009388	0.003472	0.011866	0.107449	0.003599	0.006295	0.044681	0.003032	0.002738
2.606	0.116857	0.12426	0.005071	0.004904	0.021256	0.070304	0.10489	0.009373	0.003482	0.011876	0.106623	0.003604	0.006419	0.044557	0.003015	0.002717
2.6065	0.116284	0.123428	0.005083	0.004879	0.021164	0.070996	0.104492	0.009359	0.003491	0.011887	0.105795	0.00361	0.006546	0.044438	0.002999	0.002696
2.607	0.1157	0.122581	0.005095	0.004853	0.021069	0.071706	0.104071	0.009347	0.003501	0.011897	0.104966	0.003615	0.006677	0.044326	0.002983	0.002674
2.6075	0.115105	0.12172	0.005108	0.004828	0.020972	0.072435	0.103629	0.009336	0.00351	0.011908	0.104137	0.003621	0.006811	0.044219	0.002967	0.002653
2.608	0.114499	0.120844	0.005121	0.004802	0.020874	0.073182	0.103166	0.009326	0.003519	0.011918	0.103307	0.003627	0.006948	0.044119	0.002952	0.002632
2.6085	0.113884	0.119955	0.005135	0.004776	0.020773	0.073948	0.102682	0.009318	0.003528	0.011928	0.102477	0.003632	0.007089	0.044026	0.002937	0.002611
2.609	0.113258	0.119053	0.005149	0.00475	0.020671	0.074733	0.102177	0.009311	0.003537	0.011938	0.101648	0.003638	0.007233	0.043939	0.002922	0.002591
2.6095	0.112622	0.118137	0.005164	0.004725	0.020566	0.075536	0.101652	0.009305	0.003546	0.011948	0.10082	0.003644	0.007381	0.043859	0.002907	0.00257
2.61	0.111976	0.117209	0.005179	0.004699	0.02046	0.076358	0.101107	0.009301	0.003555	0.011956	0.099992	0.00365	0.007532	0.043786	0.002892	0.00255
2.6105	0.11132	0.116268	0.005195	0.004673	0.020353	0.0772	0.100543	0.009299	0.003563	0.011964	0.099166	0.003656	0.007686	0.04372	0.002878	0.00253
2.611	0.110654	0.115315	0.005211	0.004647	0.020243	0.07806	0.09996	0.009298	0.003571	0.011971	0.098342	0.003662	0.007844	0.043661	0.002864	0.002509
2.6115	0.10998	0.11435	0.005227	0.004621	0.020133	0.07894	0.099358	0.009298	0.003579	0.011977	0.09752	0.003668	0.008006	0.043609	0.002851	0.002489
2.612	0.109295	0.113374	0.005244	0.004595	0.020021	0.079838	0.098738	0.0093	0.003587	0.011981	0.096701	0.003674	0.008171	0.043564	0.002837	0.00247
2.6125	0.108601	0.112387	0.005261	0.004569	0.019908	0.080756	0.098099	0.009304	0.003594	0.011984	0.095885	0.00368	0.008339	0.043527	0.002824	0.00245
2.613	0.107898	0.111389	0.005279	0.004542	0.019793	0.081693	0.097443	0.009309	0.003602	0.011986	0.095073	0.003686	0.008512	0.043496	0.002812	0.002431
2.6135	0.107185	0.11038	0.005297	0.004516	0.019678	0.082649	0.09677	0.009316	0.003609	0.011986	0.094264	0.003693	0.008688	0.043474	0.002799	0.002411
2.614	0.106463	0.109361	0.005316	0.00449	0.019561	0.083625	0.096079	0.009325	0.003616	0.011985	0.09346	0.003699	0.008867	0.043458	0.002787	0.002392
2.6145	0.105732	0.108332	0.005334	0.004463	0.019443	0.08462	0.095372	0.009335	0.003623	0.011981	0.092661	0.003705	0.00905	0.04345	0.002776	0.002373
2.615	0.104992	0.107295	0.005354	0.004437	0.019325	0.085634	0.094648	0.009347	0.003629	0.011976	0.091867	0.003711	0.009237	0.04345	0.002764	0.002354
2.6155	0.104244	0.106249	0.005373	0.00441	0.019205	0.086667	0.093909	0.009361	0.003635	0.011968	0.091078	0.003717	0.009428	0.043456	0.002754	0.002336
2.616	0.103487	0.105195	0.005393	0.004384	0.019085	0.087719	0.093153	0.009376	0.003642	0.011959	0.090295	0.003723	0.009622	0.043471	0.002743	0.002317
2.6165	0.102722	0.104133	0.005413	0.004357	0.018963	0.088791	0.092382	0.009393	0.003648	0.011948	0.089518	0.003728	0.00982	0.043493	0.002733	0.002299
2.617	0.101949	0.103065	0.005434	0.00433	0.018842	0.089882	0.091597	0.009412	0.003653	0.011935	0.088748	0.003734	0.010022	0.043522	0.002723	0.002281
2.6175	0.101168	0.101991	0.005454	0.004303	0.018719	0.090992	0.090797	0.009432	0.003659	0.01192	0.087986	0.00374	0.010227	0.043558	0.002713	0.002263
2.618	0.100381	0.100912	0.005475	0.004276	0.018596	0.09212	0.089983	0.009454	0.003664	0.011903	0.087231	0.003745	0.010437	0.043602	0.002704	0.002246
2.6185	0.099585	0.099828	0.005497	0.004249	0.018472	0.093268	0.089156	0.009478	0.003669	0.011883	0.086484	0.00375	0.01065	0.043653	0.002696	0.002228
2.619	0.098784	0.098739	0.005518	0.004221	0.018348	0.094434	0.088315	0.009504	0.003674	0.011862	0.085745	0.003755	0.010866	0.043711	0.002687	0.002211
2.6195	0.097975	0.097647	0.00554	0.004193	0.018224	0.095619	0.087462	0.009531	0.003679	0.011839	0.085016	0.00376	0.011087	0.043777	0.002679	0.002194
2.62	0.097161	0.096553	0.005562	0.004165	0.018099	0.096822	0.086597	0.00956	0.003684	0.011814	0.084296	0.003765	0.011311	0.043849	0.002671	0.002177
2.6205	0.096341	0.095457	0.005584	0.004137	0.017974	0.098044	0.085721	0.009591	0.003689	0.011787	0.083586	0.00377	0.011539	0.043929	0.002664	0.002161
2.621	0.095515	0.094359	0.005606	0.004109	0.017849	0.099283	0.084833	0.009623	0.003693	0.011758	0.082886	0.003774	0.011771	0.044015	0.002657	0.002144
2.6215	0.094685	0.093262	0.005629	0.00408	0.017723	0.100541	0.083935	0.009657	0.003698	0.011726	0.082198	0.003778	0.012007	0.044108	0.002651	0.002128
2.622	0.09385	0.092165	0.005651	0.004051	0.017598	0.101815	0.083027	0.009692	0.003702	0.011693	0.08152	0.003782	0.012246	0.044208	0.002645	0.002112
2.6225	0.093011	0.091069	0.005674	0.004022	0.017473	0.103107	0.082109	0.00973	0.003706	0.011658	0.080854	0.003786	0.012489	0.044314	0.002639	0.002097
2.623	0.092167	0.089975	0.005697	0.003993	0.017347	0.104416	0.081181	0.009768	0.00371	0.011621	0.0802	0.003789	0.012736	0.044427	0.002633	0.002081
2.6235	0.09132	0.088884	0.00572	0.003963	0.017222	0.105741	0.080244	0.009809	0.003714	0.011582	0.079557	0.003792	0.012986	0.044545	0.002628	0.002066
2.624	0.09047	0.087796	0.005742	0.003933	0.017096	0.107082	0.0793	0.009851	0.003718	0.011541	0.078928	0.003795	0.013241	0.04467	0.002624	0.002051
2.6245	0.089616	0.086712	0.005765	0.003902	0.016971	0.108439	0.078347	0.009895	0.003722	0.011498	0.078311	0.003797	0.013499	0.044801	0.002619	0.002037
2.625	0.08876	0.085633	0.005788	0.003871	0.016846	0.109811	0.077387	0.00994	0.003726	0.011454	0.077707	0.003799	0.01376	0.044937	0.002616	0.002022
2.6255	0.087902	0.08456	0.005811	0.00384	0.016722	0.111198	0.07642	0.009987	0.003729	0.011407	0.077116	0.0038	0.014025	0.045079	0.002612	0.002008
2.626	0.087041	0.083492	0.005833	0.003808	0.016597	0.112599	0.075447	0.010035	0.003733	0.011359	0.076538	0.003802	0.014294	0.045227	0.002609	0.001994
2.6265	0.086178	0.082431	0.005856	0.003776	0.016473	0.114015	0.074468	0.010085	0.003736	0.011309	0.075974	0.003802	0.014566	0.04538	0.002606	0.00198
2.627	0.085313	0.081377	0.005878	0.003743	0.01635	0.115443	0.073483	0.010136	0.003739	0.011257	0.075423	0.003803	0.014842	0.045538	0.002604	0.001967
2.6275	0.084447	0.08033	0.005901	0.00371	0.016226	0.116884	0.072494	0.010189	0.003743	0.011203	0.074886	0.003803	0.015121	0.045701	0.002602	0.001954
2.628	0.083579	0.079292	0.005923	0.003676	0.016104	0.118337	0.071501	0.010243	0.003746	0.011147	0.074364	0.003802	0.015404	0.045869	0.0026	0.001941
2.6285	0.082711	0.078262	0.005945	0.003641	0.015982	0.119802	0.070505	0.010299	0.003749	0.01109	0.073855	0.003801	0.01569	0.046041	0.002599	0.001928
2.629	0.081841	0.077241	0.005966	0.003606	0.01586	0.121277	0.069505	0.010356	0.003752	0.011031	0.07336	0.0038	0.01598	0.046219	0.002598	0.001915
2.6295	0.08097	0.07623	0.005988	0.003571	0.015739	0.122763	0.068502	0.010415	0.003755	0.010971	0.072879	0.003798	0.016273	0.046401	0.002598	0.001903
2.63	0.080099	0.075228	0.006009	0.003534	0.015619	0.124257	0.067497	0.010475	0.003758	0.010909	0.072412	0.003795	0.016569	0.046587	0.002598	0.001891
2.6305	0.079228	0.074237	0.006029	0.003498	0.015499	0.125761	0.06649	0.010537	0.003761	0.010845	0.07196	0.003792	0.016868	0.046777	0.002598	0.001879
2.631	0.078357	0.073257	0.00605	0.00346	0.01538	0.127272	0.065482	0.0106	0.003764	0.01078	0.071522	0.003788	0.017171	0.046972	0.002599	0.001868
2.6315	0.077485	0.072288	0.00607	0.003422	0.015262	0.12879	0.064473	0.010665	0.003766	0.010713	0.071098	0.003784	0.017477	0.047172	0.0026	0.001857
2.632	0.076614	0.07133	0.006089	0.003383	0.015145	0.130314	0.063463	0.010731	0.003769	0.010645	0.070688	0.003779	0.017786	0.047375	0.002601	0.001846
2.6325	0.075744	0.070384	0.006108	0.003343	0.015028	0.131844	0.062454	0.010798	0.003772	0.010575	0.070292	0.003773	0.018099	0.047583	0.002603	0.001835
2.633	0.074874	0.06945	0.006126	0.003303	0.014912	0.133377	0.061445	0.010867	0.003774	0.010505	0.06991	0.003767	0.018414	0.047794	0.002606	0.001824
2.6335	0.074005	0.068529	0.006144	0.003262	0.014798	0.134914	0.060437	0.010938	0.003777	0.010433	0.069542	0.00376	0.018732	0.04801	0.002608	0.001814
2.634	0.073137	0.06762	0.006162	0.00322	0.014684	0.136454	0.059431	0.01101	0.00378	0.010359	0.069188	0.003753	0.019054	0.048229	0.002611	0.001804
2.6345	0.07227	0.066724	0.006179	0.003177	0.014571	0.137995	0.058427	0.011083	0.003782	0.010285	0.068848	0.003744	0.019378	0.048453	0.002614	0.001794
2.635	0.071405	0.065842	0.006195	0.003134	0.014459	0.139537	0.057424	0.011159	0.003785	0.010209	0.068522	0.003735	0.019705	0.048679	0.002618	0.001784
2.6355	0.070542	0.064973	0.006211	0.00309	0.014347	0.141078	0.056425	0.011235	0.003787	0.010133	0.068209	0.003726	0.020035	0.048909	0.002622	0.001775
2.636	0.069681	0.064117	0.006226	0.003045	0.014237	0.142619	0.055429	0.011314	0.00379	0.010055	0.067909	0.003715	0.020368	0.049143	0.002627	0.001766
2.6365	0.068822	0.063276	0.006241	0.002999	0.014128	0.144157	0.054436	0.011394	0.003792	0.009977	0.067623	0.003704	0.020703	0.04938	0.002632	0.001757
2.637	0.067966	0.062448	0.006255	0.002952	0.01402	0.145693	0.053447	0.011475	0.003795	0.009898	0.06735	0.003692	0.021041	0.04962	0.002637	0.001748
2.6375	0.067113	0.061635	0.006268	0.002905	0.013913	0.147224	0.052462	0.011558	0.003797	0.009818	0.06709	0.003679	0.021381	0.049864	0.002643	0.00174
2.638	0.066262	0.060835	0.00628	0.002857	0.013806	0.148751	0.051482	0.011643	0.0038	0.009737	0.066842	0.003665	0.021724	0.05011	0.002649	0.001731
2.6385	0.065415	0.060051	0.006292	0.002808	0.013701	0.150272	0.050506	0.011729	0.003802	0.009656	0.066607	0.003651	0.022069	0.05036	0.002655	0.001723
2.639	0.064571	0.059281	0.006304	0.002758	0.013597	0.151787	0.049536	0.011817	0.003805	0.009575	0.066384	0.003636	0.022417	0.050614	0.002662	0.001715
2.6395	0.063731	0.058525	0.006314	0.002707	0.013494	0.153293	0.048571	0.011906	0.003807	0.009493	0.066174	0.00362	0.022766	0.05087	0.002669	0.001708
2.64	0.062894	0.057785	0.006324	0.002655	0.013392	0.154792	0.047613	0.011997	0.00381	0.00941	0.065975	0.003603	0.023118	0.05113	0.002676	0.0017
2.6405	0.062061	0.057059	0.006333	0.002603	0.013291	0.15628	0.04666	0.01209	0.003812	0.009328	0.065788	0.003585	0.023471	0.051393	0.002684	0.001693
2.641	0.061233	0.056348	0.006342	0.00255	0.013191	0.157758	0.045713	0.012184	0.003815	0.009245	0.065612	0.003567	0.023827	0.051659	0.002692	0.001686
2.6415	0.060409	0.055652	0.006349	0.002496	0.013092	0.159224	0.044774	0.01228	0.003817	0.009162	0.065448	0.003548	0.024184	0.051928	0.0027	0.001679
2.642	0.059589	0.054971	0.006356	0.002441	0.012994	0.160678	0.043841	0.012377	0.00382	0.009079	0.065294	0.003527	0.024543	0.0522	0.002709	0.001673
2.6425	0.058774	0.054305	0.006363	0.002385	0.012898	0.162119	0.042915	0.012476	0.003822	0.008997	0.065151	0.003507	0.024903	0.052476	0.002718	0.001666
2.643	0.057965	0.053653	0.006368	0.002328	0.012803	0.163546	0.041996	0.012577	0.003824	0.008914	0.065018	0.003485	0.025265	0.052754	0.002727	0.00166
2.6435	0.05716	0.053017	0.006373	0.00227	0.012709	0.164959	0.041086	0.012679	0.003827	0.008831	0.064895	0.003462	0.025627	0.053036	0.002737	0.001654
2.644	0.056361	0.052395	0.006377	0.002211	0.012616	0.166356	0.040182	0.012782	0.003829	0.008749	0.064781	0.003439	0.025992	0.05332	0.002747	0.001648
2.6445	0.055567	0.051788	0.006381	0.002152	0.012524	0.167738	0.039287	0.012887	0.003832	0.008667	0.064677	0.003415	0.026357	0.053608	0.002758	0.001642
2.645	0.05478	0.051196	0.006383	0.002091	0.012434	0.169104	0.0384	0.012994	0.003834	0.008585	0.064582	0.00339	0.026722	0.053898	0.002768	0.001636
2.6455	0.053998	0.050618	0.006385	0.00203	0.012345	0.170453	0.037522	0.013102	0.003837	0.008504	0.064495	0.003364	0.027089	0.054191	0.002779	0.001631
2.646	0.053222	0.050055	0.006386	0.001968	0.012257	0.171785	0.036651	0.013211	0.003839	0.008423	0.064416	0.003337	0.027456	0.054487	0.002791	0.001625
2.6465	0.052452	0.049506	0.006387	0.001905	0.012171	0.173101	0.03579	0.013322	0.003842	0.008342	0.064344	0.003309	0.027824	0.054786	0.002802	0.00162
2.647	0.051689	0.048971	0.006386	0.00184	0.012086	0.174399	0.034937	0.013435	0.003844	0.008262	0.06428	0.003281	0.028191	0.055087	0.002814	0.001615
2.6475	0.050932	0.048451	0.006385	0.001775	0.012002	0.175679	0.034093	0.013549	0.003847	0.008183	0.064223	0.003252	0.028559	0.05539	0.002826	0.00161
2.648	0.050182	0.047944	0.006383	0.001709	0.01192	0.176941	0.033258	0.013664	0.003849	0.008104	0.064173	0.003222	0.028927	0.055696	0.002838	0.001605
2.6485	0.049439	0.047451	0.00638	0.001642	0.011839	0.178186	0.032433	0.013781	0.003852	0.008026	0.064128	0.003191	0.029294	0.056003	0.002851	0.0016
2.649	0.048703	0.046973	0.006376	0.001574	0.011759	0.179412	0.031617	0.0139	0.003854	0.007949	0.064089	0.003159	0.029661	0.056313	0.002864	0.001596
2.6495	0.047973	0.046507	0.006371	0.001505	0.011681	0.18062	0.03081	0.014019	0.003857	0.007873	0.064056	0.003126	0.030027	0.056624	0.002877	0.001591
2.65	0.047251	0.046055	0.006365	0.001436	0.011604	0.181811	0.030012	0.014141	0.003859	0.007797	0.064027	0.003093	0.030393	0.056937	0.00289	0.001587
2.6505	0.046536	0.045616	0.006359	0.001365	0.011528	0.182984	0.029224	0.014264	0.003862	0.007722	0.064004	0.003058	0.030757	0.057251	0.002904	0.001583
2.651	0.045829	0.045191	0.006351	0.001293	0.011454	0.184141	0.028446	0.014388	0.003864	0.007649	0.063985	0.003023	0.03112	0.057566	0.002918	0.001578
2.6515	0.045128	0.044778	0.006343	0.00122	0.011381	0.18528	0.027678	0.014514	0.003867	0.007576	0.06397	0.002987	0.031481	0.057882	0.002932	0.001574
2.652	0.044436	0.044378	0.006333	0.001147	0.01131	0.186403	0.026919	0.014641	0.00387	0.007504	0.06396	0.00295	0.031841	0.058199	0.002946	0.00157
2.6525	0.043751	0.043991	0.006323	0.001072	0.01124	0.18751	0.026171	0.01477	0.003872	0.007433	0.063953	0.002912	0.032198	0.058516	0.002961	0.001566
2.653	0.043073	0.043616	0.006311	0.000997	0.011171	0.1886	0.025432	0.0149	0.003875	0.007363	0.06395	0.002874	0.032554	0.058833	0.002975	0.001562
2.6535	0.042404	0.043253	0.006298	0.00092	0.011104	0.189675	0.024703	0.015033	0.003878	0.007295	0.06395	0.002834	0.032907	0.05915	0.00299	0.001558
2.654	0.041742	0.042903	0.006285	0.000842	0.011038	0.190733	0.023984	0.015166	0.00388	0.007227	0.063954	0.002794	0.033257	0.059467	0.003005	0.001554
2.6545	0.041088	0.042564	0.00627	0.000764	0.010973	0.191776	0.023275	0.015302	0.003883	0.00716	0.063961	0.002752	0.033604	0.059783	0.00302	0.00155
2.655	0.040443	0.042238	0.006254	0.000685	0.01091	0.192802	0.022577	0.015439	0.003886	0.007095	0.063971	0.00271	0.033949	0.060099	0.003036	0.001547
2.6555	0.039805	0.041923	0.006237	0.000604	0.010848	0.193813	0.021888	0.015578	0.003888	0.007031	0.063985	0.002667	0.034289	0.060413	0.003051	0.001543
2.656	0.039176	0.04162	0.006219	0.000523	0.010787	0.194807	0.021209	0.015719	0.003891	0.006968	0.064002	0.002623	0.034626	0.060727	0.003067	0.001539
2.6565	0.038555	0.041328	0.0062	0.000441	0.010727	0.195786	0.02054	0.015862	0.003894	0.006906	0.064022	0.002578	0.034959	0.061039	0.003083	0.001535
2.657	0.037943	0.041048	0.00618	0.000358	0.010669	0.196747	0.019882	0.016006	0.003897	0.006845	0.064045	0.002533	0.035288	0.061349	0.003099	0.001532
2.6575	0.037339	0.040778	0.006158	0.000273	0.010612	0.197693	0.019233	0.016152	0.003899	0.006786	0.064071	0.002486	0.035612	0.061658	0.003115	0.001528
2.658	0.036743	0.040519	0.006136	0.000188	0.010557	0.198621	0.018595	0.016301	0.003902	0.006728	0.0641	0.002439	0.035932	0.061966	0.003131	0.001524
2.6585	0.036156	0.040271	0.006112	0.000103	0.010502	0.199532	0.017966	0.016451	0.003905	0.006671	0.064131	0.002391	0.036246	0.062271	0.003147	0.00152
2.659	0.035577	0.040034	0.006088	1.6e-05	0.010449	0.200426	0.017348	0.016603	0.003907	0.006615	0.064166	0.002342	0.036555	0.062575	0.003163	0.001517
2.6595	0.035008	0.039807	0.006062	0	0.010397	0.201301	0.016739	0.016757	0.00391	0.006561	0.064202	0.002292	0.036858	0.062876	0.00318	0.001513
2.66	0.034447	0.03959	0.006035	0	0.010346	0.202158	0.016141	0.016914	0.003913	0.006508	0.064242	0.002242	0.037155	0.063175	0.003196	0.001509
2.6605	0.033894	0.039383	0.006007	0	0.010297	0.202997	0.015552	0.017072	0.003915	0.006456	0.064283	0.00219	0.037445	0.063473	0.003213	0.001505
2.661	0.03335	0.039186	0.005978	0	0.010249	0.203816	0.014973	0.017233	0.003918	0.006406	0.064327	0.002138	0.037728	0.063768	0.003229	0.001501
2.6615	0.032815	0.038998	0.005948	0	0.010201	0.204615	0.014404	0.017395	0.00392	0.006356	0.064372	0.002086	0.038005	0.064061	0.003246	0.001497
2.662	0.032289	0.03882	0.005917	0	0.010155	0.205395	0.013845	0.01756	0.003922	0.006309	0.06442	0.002032	0.038273	0.064352	0.003262	0.001493
2.6625	0.031771	0.03865	0.005885	0	0.010111	0.206153	0.013295	0.017728	0.003925	0.006262	0.064469	0.001979	0.038534	0.064641	0.003279	0.001489
2.663	0.031261	0.03849	0.005852	0	0.010067	0.206891	0.012755	0.017897	0.003927	0.006217	0.06452	0.001924	0.038787	0.064928	0.003295	0.001484
2.6635	0.030761	0.038339	0.005817	0	0.010024	0.207606	0.012225	0.018069	0.003929	0.006173	0.064572	0.001869	0.039031	0.065213	0.003312	0.00148
2.664	0.030268	0.038195	0.005782	0	0.009982	0.2083	0.011704	0.018243	0.003931	0.006131	0.064626	0.001813	0.039266	0.065495	0.003328	0.001476
2.6645	0.029785	0.03806	0.005746	0	0.009942	0.208971	0.011193	0.01842	0.003932	0.00609	0.064682	0.001757	0.039492	0.065775	0.003345	0.001471
2.665	0.029309	0.037933	0.005709	0	0.009902	0.209618	0.010691	0.018599	0.003934	0.00605	0.064739	0.0017	0.039708	0.066053	0.003361	0.001466
2.6655	0.028842	0.037814	0.005671	0	0.009863	0.21024	0.010199	0.018781	0.003936	0.006011	0.064797	0.001643	0.039915	0.066328	0.003378	0.001461
2.666	0.028384	0.037701	0.005632	0	0.009825	0.210838	0.009715	0.018965	0.003937	0.005974	0.064857	0.001585	0.040111	0.066601	0.003394	0.001456
2.6665	0.027933	0.037596	0.005592	0	0.009788	0.21141	0.009241	0.019152	0.003938	0.005939	0.064919	0.001527	0.040297	0.066872	0.00341	0.001451
2.667	0.027492	0.037498	0.005551	0	0.009752	0.211956	0.008777	0.019342	0.003939	0.005904	0.064982	0.001468	0.040472	0.067139	0.003426	0.001446
2.6675	0.027058	0.037406	0.00551	0	0.009716	0.212475	0.008321	0.019534	0.00394	0.005871	0.065046	0.001409	0.040635	0.067404	0.003442	0.001441
2.668	0.026633	0.037321	0.005467	0	0.009682	0.212966	0.007874	0.01973	0.00394	0.005839	0.065112	0.00135	0.040787	0.067665	0.003458	0.001435
2.6685	0.026216	0.037242	0.005423	0	0.009648	0.213429	0.007436	0.019928	0.003941	0.005809	0.06518	0.00129	0.040928	0.067924	0.003473	0.001429
2.669	0.025808	0.037168	0.005379	0	0.009614	0.213864	0.007007	0.020128	0.003941	0.00578	0.06525	0.00123	0.041056	0.068179	0.003489	0.001423
2.6695	0.025408	0.037101	0.005334	0	0.009582	0.21427	0.006586	0.020332	0.003941	0.005752	0.065322	0.00117	0.041172	0.068432	0.003504	0.001417
2.67	0.025017	0.037038	0.005287	0	0.00955	0.214646	0.006174	0.020539	0.00394	0.005725	0.065396	0.001109	0.041275	0.06868	0.003519	0.001411
2.6705	0.024636	0.036981	0.00524	0	0.009518	0.214993	0.005771	0.020748	0.00394	0.0057	0.065472	0.001049	0.041367	0.068925	0.003534	0.001404
2.671	0.024262	0.036928	0.005192	0	0.009487	0.215311	0.005376	0.020961	0.003939	0.005676	0.06555	0.000988	0.041445	0.069167	0.003549	0.001398
2.6715	0.023899	0.036881	0.005144	0	0.009456	0.215599	0.00499	0.021177	0.003938	0.005653	0.06563	0.000927	0.041511	0.069404	0.003563	0.001391
2.672	0.023544	0.036837	0.005094	0	0.009426	0.215858	0.004611	0.021395	0.003936	0.005632	0.065714	0.000866	0.041564	0.069637	0.003578	0.001384
2.6725	0.023199	0.036798	0.005044	0	0.009396	0.216087	0.004242	0.021617	0.003935	0.005611	0.065801	0.000805	0.041604	0.069866	0.003591	0.001376
2.673	0.022863	0.036763	0.004992	0	0.009366	0.216287	0.00388	0.021842	0.003933	0.005592	0.065891	0.000744	0.041631	0.070091	0.003605	0.001369
2.6735	0.022537	0.036732	0.00494	0	0.009337	0.216458	0.003526	0.02207	0.003931	0.005574	0.065985	0.000683	0.041646	0.07031	0.003619	0.001361
2.674	0.022221	0.036705	0.004887	0	0.009308	0.2166	0.00318	0.022301	0.003928	0.005558	0.066083	0.000622	0.041647	0.070526	0.003632	0.001353
2.6745	0.021916	0.036681	0.004833	0	0.009279	0.216712	0.002842	0.022536	0.003926	0.005542	0.066186	0.000561	0.041636	0.070736	0.003644	0.001345
2.675	0.021621	0.036661	0.004778	0	0.00925	0.216796	0.002512	0.022773	0.003923	0.005528	0.066294	0.0005	0.041612	0.07094	0.003657	0.001336
2.6755	0.021336	0.036645	0.004723	0	0.009221	0.216852	0.00219	0.023015	0.00392	0.005514	0.066407	0.000439	0.041575	0.07114	0.003669	0.001328
2.676	0.021063	0.036633	0.004666	0	0.009192	0.21688	0.001875	0.02326	0.003916	0.005502	0.066527	0.000379	0.041526	0.071334	0.003681	0.001319
2.6765	0.0208	0.036624	0.004609	0	0.009164	0.216881	0.001568	0.023508	0.003913	0.005491	0.066654	0.000318	0.041465	0.071521	0.003692	0.00131
2.677	0.020549	0.036618	0.004551	0	0.009135	0.216856	0.001268	0.02376	0.003909	0.005481	0.066787	0.000258	0.041393	0.071703	0.003704	0.0013
2.6775	0.02031	0.036617	0.004492	0	0.009106	0.216805	0.000975	0.024015	0.003905	0.005472	0.066928	0.000199	0.041309	0.071879	0.003714	0.00129
2.678	0.020082	0.03662	0.004432	0	0.009077	0.21673	0.00069	0.024274	0.003901	0.005464	0.067078	0.000139	0.041215	0.072048	0.003725	0.00128
2.6785	0.019866	0.036626	0.004371	0	0.009048	0.21663	0.000412	0.024538	0.003896	0.005456	0.067237	8e-05	0.041109	0.07221	0.003735	0.00127
2.679	0.019663	0.036637	0.00431	0	0.009018	0.216507	0.000141	0.024804	0.003891	0.00545	0.067407	2.2e-05	0.040993	0.072365	0.003745	0.001259
2.6795	0.019472	0.036653	0.004247	0	0.008989	0.216361	0	0.025075	0.003886	0.005445	0.067586	0	0.040867	0.072513	0.003754	0.001248
2.68	0.019293	0.036673	0.004184	0	0.008959	0.216194	0	0.02535	0.003881	0.00544	0.067778	0	0.040732	0.072654	0.003763	0.001237
2.6805	0.019127	0.036699	0.00412	0	0.008929	0.216005	0	0.025629	0.003875	0.005436	0.067982	0	0.040587	0.072787	0.003771	0.001226
2.681	0.018975	0.036729	0.004055	0	0.008899	0.215795	0	0.025912	0.00387	0.005433	0.068198	0	0.040433	0.072912	0.003779	0.001214
2.6815	0.018835	0.036764	0.00399	0	0.008869	0.215565	0	0.0262	0.003864	0.005431	0.068429	0	0.04027	0.073029	0.003787	0.001202
2.682	0.018709	0.036805	0.003923	0	0.008838	0.215316	0	0.026492	0.003858	0.00543	0.068674	0	0.040099	0.073138	0.003794	0.001189
2.6825	0.018596	0.036852	0.003856	0	0.008807	0.215047	0	0.026788	0.003852	0.005429	0.068934	0	0.039919	0.073239	0.003801	0.001177
2.683	0.018497	0.036905	0.003788	0	0.008776	0.21476	0	0.027088	0.003846	0.005428	0.06921	0	0.039732	0.073331	0.003808	0.001164
2.6835	0.018412	0.036963	0.00372	0	0.008744	0.214453	0	0.027393	0.003839	0.005429	0.069503	0	0.039537	0.073414	0.003814	0.00115
2.684	0.018341	0.037027	0.00365	0	0.008712	0.214128	0	0.027703	0.003833	0.00543	0.069814	0	0.039334	0.073488	0.003819	0.001137
2.6845	0.018284	0.037098	0.00358	0	0.00868	0.213785	0	0.028018	0.003826	0.005431	0.070142	0	0.039125	0.073553	0.003825	0.001122
2.685	0.018242	0.037175	0.00351	0	0.008647	0.213424	0	0.028337	0.003819	0.005433	0.070489	0	0.03891	0.073608	0.00383	0.001108
2.6855	0.018215	0.037258	0.003438	0	0.008614	0.213045	0	0.028661	0.003812	0.005435	0.070856	0	0.038687	0.073653	0.003834	0.001093
2.686	0.018203	0.037348	0.003366	0	0.008581	0.212648	0	0.02899	0.003806	0.005438	0.071243	0	0.038459	0.073689	0.003838	0.001078
2.6865	0.018205	0.037445	0.003293	0	0.008548	0.212233	0	0.029323	0.003798	0.005441	0.071651	0	0.038226	0.073714	0.003842	0.001063
2.687	0.018224	0.037549	0.00322	0	0.008514	0.211799	0	0.029662	0.003791	0.005445	0.072081	0	0.037986	0.073729	0.003845	0.001047
2.6875	0.018257	0.037659	0.003146	0	0.00848	0.211348	0	0.030006	0.003784	0.005448	0.072534	0	0.037742	0.073735	0.003848	0.001031
2.688	0.018307	0.037777	0.003071	0	0.008446	0.210878	0	0.030355	0.003777	0.005452	0.073009	0	0.037493	0.073729	0.00385	0.001014
2.6885	0.018372	0.037901	0.002996	0	0.008411	0.21039	0	0.030709	0.00377	0.005456	0.073508	0	0.037239	0.073714	0.003852	0.000997
2.689	0.018453	0.038033	0.00292	0	0.008376	0.209883	0	0.031068	0.003763	0.00546	0.074031	0	0.036981	0.073688	0.003854	0.00098
2.6895	0.018551	0.038173	0.002844	0	0.008341	0.209357	0	0.031432	0.003755	0.005464	0.07458	0	0.036719	0.073652	0.003855	0.000962
2.69	0.018665	0.038319	0.002767	0	0.008306	0.208812	0	0.031801	0.003748	0.005468	0.075154	0	0.036453	0.073605	0.003856	0.000944
2.6905	0.018796	0.038473	0.00269	0	0.008271	0.208248	0	0.032176	0.003741	0.005472	0.075754	0	0.036183	0.073547	0.003856	0.000925
2.691	0.018943	0.038635	0.002612	0	0.008235	0.207664	0	0.032556	0.003734	0.005476	0.076381	0	0.03591	0.073479	0.003856	0.000907
2.6915	0.019108	0.038804	0.002534	0	0.008199	0.20706	0	0.032942	0.003727	0.00548	0.077035	0	0.035634	0.0734	0.003856	0.000887
2.692	0.019289	0.03898	0.002455	0	0.008164	0.206435	0	0.033332	0.00372	0.005484	0.077717	0	0.035355	0.07331	0.003855	0.000868
2.6925	0.019489	0.039165	0.002377	0	0.008128	0.20579	0	0.033728	0.003713	0.005487	0.078427	0	0.035073	0.07321	0.003854	0.000848
2.693	0.019705	0.039357	0.002297	0	0.008092	0.205123	0	0.03413	0.003706	0.00549	0.079166	0	0.034789	0.073098	0.003852	0.000827
2.6935	0.01994	0.039556	0.002218	0	0.008055	0.204434	0	0.034537	0.003699	0.005493	0.079934	0	0.034503	0.072975	0.00385	0.000806
2.694	0.020192	0.039763	0.002138	0	0.008019	0.203724	0	0.034949	0.003693	0.005496	0.080732	0	0.034214	0.072842	0.003848	0.000785
2.6945	0.020462	0.039977	0.002058	0	0.007983	0.20299	0	0.035367	0.003686	0.005498	0.08156	0	0.033923	0.072698	0.003846	0.000764
2.695	0.020751	0.0402	0.001978	0	0.007947	0.202233	0	0.03579	0.00368	0.0055	0.082418	0	0.033631	0.072542	0.003843	0.000741
2.6955	0.021058	0.040429	0.001898	0	0.00791	0.201452	0	0.036218	0.003673	0.005501	0.083307	0	0.033337	0.072376	0.00384	0.000719
2.696	0.021384	0.040666	0.001817	0	0.007874	0.200647	0	0.036652	0.003667	0.005502	0.084227	0	0.033041	0.072198	0.003837	0.000696
2.6965	0.021728	0.04091	0.001737	0	0.007838	0.199817	0	0.037091	0.003661	0.005502	0.085178	0	0.032744	0.07201	0.003833	0.000673
2.697	0.022091	0.041162	0.001656	0	0.007801	0.198961	0	0.037536	0.003655	0.005503	0.086162	0	0.032446	0.071811	0.003829	0.000649
2.6975	0.022473	0.041421	0.001576	0	0.007765	0.19808	0	0.037985	0.003649	0.005502	0.087177	0	0.032147	0.071602	0.003825	0.000625
2.698	0.022874	0.041687	0.001495	0	0.007729	0.197174	0	0.03844	0.003643	0.005501	0.088225	0	0.031847	0.071382	0.003821	0.000601
2.6985	0.023295	0.04196	0.001414	0	0.007693	0.196241	0	0.0389	0.003638	0.0055	0.089305	0	0.031546	0.071151	0.003817	0.000576
2.699	0.023735	0.04224	0.001334	0	0.007657	0.195283	0	0.039364	0.003632	0.005498	0.090417	0	0.031245	0.07091	0.003813	0.000551
2.6995	0.024194	0.042527	0.001253	0	0.007621	0.194298	0	0.039834	0.003627	0.005495	0.091563	0	0.030943	0.070658	0.003808	0.000526
2.7	0.024673	0.04282	0.001173	0	0.007585	0.193288	0	0.040309	0.003622	0.005492	0.092742	0	0.03064	0.070396	0.003804	0.0005
2.7005	0.025172	0.043121	0.001093	0	0.007549	0.192253	0	0.040788	0.003617	0.005488	0.093953	0	0.030337	0.070124	0.0038	0.000474
2.701	0.02569	0.043428	0.001013	0	0.007514	0.191192	0	0.041272	0.003612	0.005483	0.095198	0	0.030034	0.069842	0.003796	0.000448
2.7015	0.026228	0.043741	0.000933	0	0.007479	0.190107	0	0.041761	0.003607	0.005478	0.096476	0	0.029731	0.06955	0.003792	0.000421
2.702	0.026787	0.044061	0.000853	0	0.007444	0.188997	0	0.042255	0.003603	0.005472	0.097788	0	0.029427	0.069248	0.003788	0.000395
2.7025	0.027365	0.044387	0.000774	0	0.007409	0.187863	0	0.042753	0.003598	0.005466	0.099133	0	0.029124	0.068937	0.003785	0.000368
2.703	0.027963	0.044719	0.000695	0	0.007374	0.186704	0	0.043255	0.003594	0.005458	0.100511	0	0.028821	0.068616	0.003781	0.00034
2.7035	0.028582	0.045057	0.000617	0	0.00734	0.185522	0	0.043762	0.00359	0.005451	0.101923	0	0.028517	0.068286	0.003779	0.000313
2.704	0.029221	0.045402	0.000539	0	0.007306	0.184317	0	0.044274	0.003587	0.005442	0.103368	0	0.028214	0.067948	0.003776	0.000285
2.7045	0.02988	0.045752	0.000461	0	0.007273	0.183088	0	0.04479	0.003583	0.005433	0.104846	0	0.027912	0.067601	0.003774	0.000257
2.705	0.03056	0.046108	0.000384	0	0.00724	0.181838	0	0.045311	0.00358	0.005423	0.106357	0	0.02761	0.067246	0.003773	0.000229
2.7055	0.03126	0.04647	0.000308	0	0.007207	0.180565	0	0.045836	0.003577	0.005412	0.107901	0	0.027308	0.066884	0.003772	0.000201
2.706	0.031981	0.046837	0.000232	0	0.007175	0.179272	0	0.046365	0.003574	0.005401	0.109477	0	0.027008	0.066514	0.003771	0.000173
2.7065	0.032722	0.04721	0.000157	0	0.007143	0.177959	0	0.046899	0.003572	0.005389	0.111087	0	0.026707	0.066136	0.003771	0.000145
2.707	0.033483	0.047589	8.3e-05	0	0.007111	0.176627	0	0.047437	0.00357	0.005377	0.112728	0	0.026408	0.065752	0.003772	0.000117
2.7075	0.034265	0.047973	9e-06	0	0.00708	0.175276	0	0.04798	0.003568	0.005364	0.114402	0	0.02611	0.065361	0.003774	8.8e-05
2.708	0.035067	0.048362	0	0	0.007049	0.173908	0	0.048527	0.003566	0.005351	0.116107	0	0.025812	0.064964	0.003777	6e-05
2.7085	0.03589	0.048757	0	0	0.007019	0.172523	0	0.049079	0.003565	0.005337	0.117844	0	0.025516	0.064561	0.00378	3.2e-05
2.709	0.036733	0.049157	0	0	0.006989	0.171122	0	0.049636	0.003564	0.005322	0.119612	0	0.02522	0.064153	0.003784	5e-06
2.7095	0.037597	0.049563	0	0	0.00696	0.169706	0	0.050197	0.003563	0.005307	0.121412	0	0.024926	0.063739	0.003789	0
2.71	0.038481	0.049975	0	0	0.006931	0.168276	0	0.050762	0.003562	0.005291	0.123241	0	0.024633	0.063321	0.003795	0
2.7105	0.039385	0.050391	0	0	0.006903	0.166833	0	0.051333	0.003562	0.005275	0.125101	0	0.024341	0.062898	0.003803	0
2.711	0.04031	0.050814	0	0	0.006875	0.165377	0	0.051907	0.003562	0.005258	0.126991	0	0.024051	0.062472	0.003811	0
2.7115	0.041255	0.051241	0	0	0.006848	0.163909	0	0.052486	0.003563	0.005241	0.12891	3.7e-05	0.023762	0.062041	0.00382	0
2.712	0.042221	0.051675	0	0.000201	0.006822	0.16243	0	0.05307	0.003563	0.005223	0.130858	0.000162	0.023474	0.061608	0.003831	0
2.7125	0.043206	0.052113	0	0.00057	0.006796	0.16094	0	0.053658	0.003565	0.005205	0.132835	0.000295	0.023188	0.061173	0.003843	0
2.713	0.044212	0.052557	0	0.000954	0.006771	0.159441	0	0.054251	0.003566	0.005187	0.13484	0.000434	0.022903	0.060735	0.003856	0
2.7135	0.045238	0.053007	0	0.001353	0.006747	0.157931	0	0.054847	0.003568	0.005168	0.136872	0.000579	0.02262	0.060296	0.00387	0
2.714	0.046283	0.053462	0	0.001768	0.006724	0.156414	0	0.055448	0.003571	0.005149	0.138931	0.000733	0.022338	0.059855	0.003886	0
2.7145	0.047349	0.053922	0	0.002199	0.006702	0.154887	0	0.056053	0.003573	0.00513	0.141017	0.000893	0.022058	0.059414	0.003903	0
2.715	0.048435	0.054388	0	0.002646	0.00668	0.153353	0	0.056661	0.003577	0.00511	0.143128	0.001061	0.021779	0.058972	0.003922	0
2.7155	0.04954	0.05486	0	0.00311	0.00666	0.151812	0	0.057274	0.00358	0.00509	0.145265	0.001236	0.021502	0.058531	0.003943	0
2.716	0.050665	0.055337	0	0.003591	0.00664	0.150263	0	0.05789	0.003585	0.00507	0.147426	0.001419	0.021227	0.05809	0.003965	0
2.7165	0.051809	0.05582	0	0.004089	0.006622	0.148708	0	0.05851	0.00359	0.005049	0.149612	0.00161	0.020953	0.05765	0.003988	0
2.717	0.052973	0.056309	0	0.004604	0.006604	0.147146	0	0.059133	0.003595	0.005028	0.15182	0.001809	0.020681	0.057212	0.004014	0
2.7175	0.054156	0.056805	0	0.005137	0.006588	0.145579	0	0.05976	0.003601	0.005008	0.154051	0.002017	0.02041	0.056775	0.004041	0
2.718	0.055358	0.057307	0	0.005689	0.006573	0.144006	0	0.060389	0.003607	0.004986	0.156304	0.002232	0.020141	0.05634	0.00407	0
2.7185	0.056579	0.057815	0	0.006258	0.006559	0.142428	0	0.061022	0.003614	0.004965	0.158579	0.002457	0.019874	0.055908	0.004101	0
2.719	0.057818	0.05833	0	0.006847	0.006546	0.140844	0	0.061657	0.003622	0.004944	0.160874	0.00269	0.019608	0.055478	0.004134	0
2.7195	0.059077	0.058851	0	0.007454	0.006534	0.139256	0	0.062295	0.00363	0.004922	0.163189	0.002932	0.019344	0.055052	0.004169	0
2.72	0.060353	0.05938	0	0.008081	0.006524	0.137664	0	0.062936	0.003639	0.0049	0.165523	0.003184	0.019081	0.054629	0.004206	0
2.7205	0.061648	0.059915	0	0.008727	0.006516	0.136067	0	0.063579	0.003649	0.004878	0.167876	0.003444	0.01882	0.05421	0.004246	0
2.721	0.062961	0.060458	0	0.009394	0.006508	0.134467	0	0.064224	0.003659	0.004856	0.170246	0.003714	0.01856	0.053795	0.004287	0
2.7215	0.064292	0.061008	0	0.01008	0.006503	0.132862	0	0.064871	0.00367	0.004835	0.172634	0.003994	0.018301	0.053384	0.004331	0
2.722	0.065641	0.061566	0	0.010787	0.006498	0.131254	0	0.065521	0.003681	0.004813	0.175037	0.004284	0.018044	0.052979	0.004377	0
2.7225	0.067007	0.062131	0	0.011515	0.006496	0.129642	0	0.066172	0.003694	0.004791	0.177457	0.004583	0.017789	0.052578	0.004426	0
2.723	0.068391	0.062704	0	0.012264	0.006495	0.128028	0	0.066825	0.003707	0.004769	0.179891	0.004893	0.017534	0.052183	0.004477	0
2.7235	0.069791	0.063284	0	0.013034	0.006496	0.12641	0	0.06748	0.003721	0.004747	0.182339	0.005213	0.017281	0.051793	0.00453	0
2.724	0.071209	0.063873	0	0.013826	0.006499	0.12479	0	0.068137	0.003735	0.004725	0.184801	0.005543	0.017029	0.051409	0.004586	0
2.7245	0.072644	0.064469	0	0.014639	0.006503	0.123168	2e-06	0.068795	0.003751	0.004703	0.187276	0.005885	0.016778	0.051031	0.004645	0
2.725	0.074095	0.065073	0	0.015475	0.00651	0.121544	0.000285	0.069454	0.003767	0.004681	0.189763	0.006237	0.016529	0.05066	0.004707	0
2.7255	0.075563	0.065685	0	0.016334	0.006518	0.119919	0.000577	0.070115	0.003784	0.004659	0.192261	0.0066	0.01628	0.050296	0.004771	0
2.726	0.077047	0.066305	0	0.017215	0.006529	0.118294	0.000877	0.070777	0.003802	0.004638	0.19477	0.006974	0.016033	0.049938	0.004838	0
2.7265	0.078547	0.066933	0	0.018119	0.006542	0.116668	0.001186	0.07144	0.003821	0.004616	0.197289	0.00736	0.015786	0.049588	0.004908	0
2.727	0.080062	0.06757	0	0.019047	0.006557	0.115042	0.001503	0.072105	0.00384	0.004595	0.199818	0.007757	0.015541	0.049246	0.004981	0
2.7275	0.081593	0.068214	0	0.019998	0.006574	0.113417	0.001829	0.07277	0.003861	0.004574	0.202356	0.008166	0.015296	0.048912	0.005057	0
2.728	0.08314	0.068867	0	0.020972	0.006594	0.111793	0.002164	0.073437	0.003882	0.004553	0.204902	0.008586	0.015052	0.048585	0.005136	0
2.7285	0.084702	0.069528	0	0.021971	0.006616	0.110171	0.002508	0.074105	0.003904	0.004532	0.207456	0.009019	0.014809	0.048267	0.005218	0
2.729	0.086278	0.070197	0	0.022995	0.00664	0.108551	0.002861	0.074773	0.003927	0.004512	0.210017	0.009464	0.014567	0.047958	0.005304	0
2.7295	0.08787	0.070875	0	0.024042	0.006667	0.106933	0.003224	0.075442	0.003951	0.004492	0.212585	0.009921	0.014326	0.047658	0.005393	0
2.73	0.089476	0.071561	0	0.025115	0.006697	0.105319	0.003596	0.076112	0.003975	0.004472	0.21516	0.010391	0.014085	0.047367	0.005485	0
2.7305	0.091097	0.072256	0	0.026212	0.00673	0.103709	0.003978	0.076782	0.004001	0.004452	0.217741	0.010874	0.013845	0.047086	0.005581	0
2.731	0.092733	0.072959	0	0.027335	0.006765	0.102102	0.004369	0.077453	0.004028	0.004433	0.220328	0.011369	0.013606	0.046814	0.00568	0
2.7315	0.094383	0.073671	0	0.028483	0.006804	0.1005	0.004771	0.078124	0.004055	0.004414	0.222921	0.011877	0.013367	0.046552	0.005782	2.7e-05
2.732	0.096048	0.074391	0	0.029658	0.006845	0.098904	0.005182	0.078795	0.004083	0.004395	0.225521	0.012399	0.013129	0.0463	0.005888	8.7e-05
2.7325	0.097728	0.07512	0	0.030857	0.006889	0.097313	0.005604	0.079466	0.004113	0.004376	0.228126	0.012934	0.012892	0.046058	0.005998	0.000152
2.733	0.099422	0.075857	0	0.032084	0.006937	0.095729	0.006037	0.080137	0.004143	0.004358	0.230738	0.013482	0.012655	0.045827	0.006112	0.000222
2.7335	0.10113	0.076603	8e-05	0.033336	0.006988	0.094151	0.006479	0.080808	0.004174	0.00434	0.233355	0.014044	0.012419	0.045607	0.00623	0.000295
2.734	0.102853	0.077358	0.00022	0.034615	0.007042	0.092581	0.006933	0.081478	0.004206	0.004323	0.235977	0.014619	0.012184	0.045397	0.006351	0.000374
2.7345	0.10459	0.07812	0.000369	0.035921	0.0071	0.091019	0.007397	0.082148	0.004239	0.004306	0.238605	0.015209	0.011949	0.045199	0.006477	0.000457
2.735	0.106342	0.078891	0.000525	0.037254	0.007161	0.089465	0.007873	0.082817	0.004272	0.004289	0.241236	0.015812	0.011715	0.045012	0.006607	0.000545
2.7355	0.108107	0.079671	0.000691	0.038613	0.007226	0.087921	0.00836	0.083485	0.004307	0.004273	0.243873	0.01643	0.011482	0.044837	0.006741	0.000637
2.736	0.109887	0.080458	0.000865	0.040001	0.007295	0.086386	0.008858	0.084152	0.004342	0.004257	0.246513	0.017061	0.011249	0.044673	0.006879	0.000735
2.7365	0.11168	0.081253	0.001049	0.041415	0.007368	0.084863	0.009368	0.084818	0.004379	0.004242	0.249156	0.017708	0.011017	0.044522	0.007021	0.000838
2.737	0.113487	0.082057	0.001242	0.042857	0.007445	0.08335	0.009889	0.085482	0.004416	0.004227	0.251802	0.018368	0.010786	0.044383	0.007168	0.000946
2.7375	0.115308	0.082868	0.001444	0.044327	0.007526	0.081849	0.010422	0.086145	0.004454	0.004212	0.25445	0.019043	0.010555	0.044257	0.007319	0.00106
2.738	0.117142	0.083687	0.001656	0.045825	0.007611	0.080361	0.010968	0.086807	0.004494	0.004198	0.257099	0.019733	0.010326	0.044143	0.007475	0.001179
2.7385	0.118989	0.084513	0.001878	0.047351	0.007701	0.078885	0.011525	0.087467	0.004534	0.004185	0.25975	0.020438	0.010097	0.044043	0.007635	0.001304
2.739	0.120848	0.085347	0.002111	0.048905	0.007795	0.077423	0.012095	0.088124	0.004575	0.004171	0.2624	0.021158	0.009869	0.043956	0.0078	0.001435
2.7395	0.122721	0.086189	0.002353	0.050487	0.007894	0.075975	0.012678	0.08878	0.004616	0.004159	0.265051	0.021893	0.009641	0.043882	0.00797	0.001571
2.74	0.124606	0.087038	0.002607	0.052098	0.007998	0.074541	0.013273	0.089432	0.004659	0.004147	0.267699	0.022643	0.009415	0.043822	0.008144	0.001714
2.7405	0.126504	0.087895	0.002871	0.053736	0.008107	0.073122	0.013881	0.090082	0.004703	0.004135	0.270346	0.023408	0.009189	0.043776	0.008324	0.001862
2.741	0.128414	0.088759	0.003147	0.055404	0.008221	0.071719	0.014503	0.090729	0.004747	0.004123	0.272991	0.024188	0.008965	0.043744	0.008508	0.002017
2.7415	0.130337	0.089631	0.003434	0.057099	0.008341	0.070332	0.015137	0.091372	0.004793	0.004113	0.275634	0.024984	0.008741	0.043726	0.008697	0.002179
2.742	0.132271	0.090509	0.003732	0.058824	0.008466	0.068962	0.015785	0.092012	0.004839	0.004102	0.278273	0.025795	0.008518	0.043724	0.008891	0.002346
2.7425	0.134217	0.091395	0.004043	0.060577	0.008596	0.067609	0.016447	0.092647	0.004887	0.004093	0.280909	0.026622	0.008297	0.043736	0.00909	0.002521
2.743	0.136176	0.092289	0.004365	0.062358	0.008732	0.066273	0.017123	0.093278	0.004935	0.004084	0.283541	0.027464	0.008076	0.043763	0.009294	0.002703
2.7435	0.138146	0.093189	0.0047	0.064168	0.008874	0.064956	0.017813	0.093904	0.004984	0.004075	0.286169	0.028322	0.007857	0.043806	0.009503	0.002891
2.744	0.140129	0.094097	0.005048	0.066006	0.009022	0.063657	0.018517	0.094526	0.005034	0.004067	0.288792	0.029195	0.007639	0.043864	0.009718	0.003087
2.7445	0.142123	0.095012	0.005408	0.067873	0.009176	0.062377	0.019236	0.095142	0.005085	0.004059	0.291409	0.030084	0.007421	0.043938	0.009938	0.00329
2.745	0.144129	0.095933	0.005782	0.069768	0.009336	0.061116	0.01997	0.095753	0.005138	0.004053	0.294021	0.030989	0.007206	0.044029	0.010163	0.0035
2.7455	0.146146	0.096863	0.006168	0.071692	0.009503	0.059875	0.020719	0.096358	0.005191	0.004046	0.296625	0.031909	0.006991	0.044135	0.010393	0.003718
2.746	0.148176	0.097799	0.006569	0.073644	0.009677	0.058654	0.021482	0.096957	0.005245	0.00404	0.299223	0.032845	0.006778	0.044259	0.010629	0.003943
2.7465	0.150217	0.098742	0.006983	0.075624	0.009857	0.057454	0.022262	0.097551	0.0053	0.004035	0.301814	0.033797	0.006567	0.044399	0.01087	0.004177
2.747	0.15227	0.099692	0.007411	0.077632	0.010044	0.056274	0.023056	0.098139	0.005356	0.004031	0.304397	0.034764	0.006356	0.044557	0.011117	0.004418
2.7475	0.154334	0.10065	0.007853	0.079668	0.010239	0.055116	0.023867	0.09872	0.005413	0.004027	0.306973	0.035747	0.006148	0.044733	0.01137	0.004668
2.748	0.156411	0.101614	0.00831	0.081731	0.01044	0.053981	0.024693	0.099295	0.00547	0.004023	0.309542	0.036746	0.00594	0.044926	0.011628	0.004925
2.7485	0.1585	0.102586	0.008782	0.083822	0.010649	0.052867	0.025536	0.099864	0.005529	0.004021	0.312103	0.03776	0.005735	0.045138	0.011891	0.005192
2.749	0.160601	0.103564	0.009268	0.08594	0.010865	0.051776	0.026395	0.100426	0.005589	0.004019	0.314656	0.038789	0.005531	0.045368	0.012161	0.005466
2.7495	0.162714	0.10455	0.00977	0.088086	0.011089	0.050708	0.027271	0.100982	0.00565	0.004017	0.317201	0.039834	0.005328	0.045617	0.012436	0.00575
2.75	0.16484	0.105543	0.010287	0.090257	0.011321	0.049664	0.028163	0.101531	0.005712	0.004016	0.319737	0.040895	0.005128	0.045885	0.012717	0.006042
2.7505	0.166979	0.106543	0.01082	0.092456	0.011561	0.048643	0.029072	0.102074	0.005775	0.004016	0.322266	0.04197	0.004929	0.046172	0.013004	0.006343
2.751	0.169131	0.10755	0.011369	0.09468	0.011808	0.047647	0.029999	0.102609	0.005838	0.004017	0.324785	0.043061	0.004732	0.046478	0.013297	0.006654
2.7515	0.171296	0.108565	0.011934	0.096931	0.012064	0.046675	0.030943	0.103138	0.005903	0.004018	0.327295	0.044167	0.004536	0.046805	0.013596	0.006974
2.752	0.173474	0.109588	0.012515	0.099206	0.012328	0.045729	0.031904	0.103659	0.005968	0.00402	0.329796	0.045288	0.004343	0.047152	0.013901	0.007303
2.7525	0.175666	0.110618	0.013112	0.101507	0.012601	0.044807	0.032883	0.104173	0.006035	0.004022	0.332288	0.046423	0.004151	0.047519	0.014211	0.007641
2.753	0.17787	0.111655	0.013726	0.103832	0.012882	0.043911	0.03388	0.104678	0.006102	0.004025	0.334771	0.047574	0.003962	0.047906	0.014529	0.00799
2.7535	0.180087	0.1127	0.014357	0.106182	0.013172	0.043041	0.034895	0.105176	0.006171	0.004029	0.337244	0.048738	0.003775	0.048314	0.014852	0.008348
2.754	0.182317	0.113752	0.015006	0.108555	0.013471	0.042197	0.035928	0.105666	0.00624	0.004034	0.339708	0.049917	0.003589	0.048743	0.015181	0.008716
2.7545	0.184559	0.114812	0.015671	0.110952	0.013778	0.04138	0.03698	0.106147	0.00631	0.004039	0.342162	0.051111	0.003406	0.049194	0.015517	0.009095
2.755	0.186814	0.11588	0.016354	0.113372	0.014095	0.040589	0.03805	0.10662	0.006381	0.004045	0.344605	0.052318	0.003225	0.049665	0.015859	0.009484
2.7555	0.189082	0.116955	0.017055	0.115814	0.014421	0.039825	0.039139	0.107083	0.006453	0.004052	0.347038	0.053539	0.003047	0.050158	0.016208	0.009883
2.756	0.191361	0.118037	0.017774	0.118278	0.014756	0.039089	0.040247	0.107537	0.006526	0.004059	0.349461	0.054773	0.00287	0.050672	0.016562	0.010293
2.7565	0.193651	0.119127	0.01851	0.120763	0.015101	0.03838	0.041374	0.107981	0.006599	0.004067	0.351872	0.05602	0.002696	0.051208	0.016924	0.010713
2.757	0.195952	0.120225	0.019265	0.123269	0.015455	0.0377	0.04252	0.108415	0.006674	0.004076	0.354271	0.057281	0.002524	0.051766	0.017291	0.011145
2.7575	0.198264	0.12133	0.020039	0.125795	0.015819	0.037047	0.043685	0.108839	0.006749	0.004086	0.356659	0.058554	0.002355	0.052346	0.017666	0.011588
2.758	0.200586	0.122442	0.020831	0.128341	0.016192	0.036423	0.044869	0.109253	0.006825	0.004096	0.359033	0.059839	0.002188	0.052947	0.018047	0.012042
2.7585	0.202917	0.123562	0.021641	0.130906	0.016576	0.035827	0.046073	0.109657	0.006903	0.004107	0.361396	0.061137	0.002024	0.053571	0.018434	0.012507
2.759	0.205257	0.124688	0.022471	0.133489	0.016969	0.03526	0.047296	0.110049	0.006981	0.004119	0.363744	0.062446	0.001863	0.054217	0.018828	0.012985
2.7595	0.207605	0.125822	0.02332	0.13609	0.017373	0.034722	0.048539	0.110431	0.00706	0.004132	0.366079	0.063767	0.001704	0.054886	0.019229	0.013474
2.76	0.20996	0.126963	0.024188	0.138708	0.017787	0.034213	0.049802	0.110801	0.007139	0.004145	0.3684	0.065099	0.001548	0.055577	0.019637	0.013975
2.7605	0.212322	0.128111	0.025075	0.141342	0.018211	0.033734	0.051084	0.111161	0.00722	0.004159	0.370706	0.066441	0.001395	0.05629	0.020053	0.014489
2.761	0.214689	0.129266	0.025982	0.143991	0.018646	0.033285	0.052386	0.111509	0.007302	0.004174	0.372997	0.067794	0.001244	0.057026	0.020475	0.015015
2.7615	0.217061	0.130427	0.026909	0.146655	0.019091	0.032865	0.053708	0.111846	0.007384	0.00419	0.375271	0.069157	0.001096	0.057784	0.020904	0.015553
2.762	0.219438	0.131596	0.027856	0.149334	0.019547	0.032475	0.05505	0.112172	0.007467	0.004207	0.377528	0.070529	0.000952	0.058566	0.021341	0.016104
2.7625	0.221817	0.132771	0.028822	0.152025	0.020014	0.032116	0.056411	0.112488	0.007551	0.004225	0.379768	0.071911	0.00081	0.05937	0.021786	0.016668
2.763	0.224198	0.133952	0.029809	0.154728	0.020492	0.031787	0.057793	0.112792	0.007637	0.004244	0.381988	0.073301	0.000672	0.060196	0.022238	0.017246
2.7635	0.22658	0.13514	0.030815	0.157443	0.020981	0.031488	0.059194	0.113085	0.007723	0.004263	0.384189	0.074699	0.000536	0.061046	0.022699	0.017836
2.764	0.228962	0.136335	0.031842	0.160169	0.021482	0.031221	0.060616	0.113369	0.007809	0.004284	0.38637	0.076105	0.000404	0.061918	0.023167	0.01844
2.7645	0.231343	0.137535	0.03289	0.162905	0.021994	0.030984	0.062057	0.113642	0.007897	0.004305	0.38853	0.077518	0.000275	0.062813	0.023645	0.019058
2.765	0.233722	0.138742	0.033958	0.16565	0.022518	0.030779	0.063519	0.113905	0.007986	0.004327	0.390668	0.078938	0.00015	0.063731	0.024131	0.01969
2.7655	0.236098	0.139956	0.035047	0.168403	0.023054	0.030605	0.065	0.114159	0.008076	0.004351	0.392785	0.080364	2.8e-05	0.064671	0.024627	0.020335
2.766	0.238471	0.141175	0.036156	0.171164	0.023602	0.030462	0.066501	0.114404	0.008167	0.004375	0.394879	0.081796	0	0.065635	0.025131	0.020994
2.7665	0.240837	0.1424	0.037286	0.173933	0.024162	0.030351	0.068022	0.11464	0.008259	0.004401	0.396951	0.083233	0	0.066621	0.025646	0.021668
2.767	0.243198	0.143631	0.038437	0.176707	0.024735	0.030273	0.069563	0.114867	0.008351	0.004427	0.398998	0.084674	0	0.06763	0.02617	0.022356
2.7675	0.245551	0.144868	0.039609	0.179487	0.02532	0.030226	0.071123	0.115086	0.008445	0.004454	0.401021	0.086119	0	0.068663	0.026705	0.023059
2.768	0.247894	0.14611	0.040802	0.182272	0.025918	0.030212	0.072703	0.115297	0.00854	0.004483	0.40302	0.087568	0	0.069718	0.027251	0.023776
2.7685	0.250228	0.147357	0.042016	0.185061	0.026529	0.03023	0.074302	0.115501	0.008636	0.004512	0.404992	0.089019	0	0.070797	0.027807	0.024508
2.769	0.25255	0.148609	0.043252	0.187853	0.027153	0.030282	0.07592	0.115698	0.008734	0.004543	0.406939	0.090473	0	0.071899	0.028375	0.025255
2.7695	0.254859	0.149866	0.044509	0.190648	0.02779	0.030366	0.077558	0.115889	0.008832	0.004575	0.40886	0.091927	0	0.073024	0.028955	0.026018
2.77	0.257154	0.151127	0.045787	0.193443	0.028441	0.030483	0.079214	0.116074	0.008931	0.004608	0.410755	0.093383	0	0.074173	0.029547	0.026795
2.7705	0.259435	0.152392	0.047086	0.19624	0.029106	0.030634	0.080889	0.116254	0.009032	0.004642	0.412624	0.094839	0	0.075344	0.030153	0.027588
2.771	0.261699	0.153661	0.048407	0.199036	0.029784	0.030818	0.082582	0.116429	0.009134	0.004677	0.414466	0.096295	0	0.076539	0.030771	0.028396
2.7715	0.263945	0.154933	0.049749	0.20183	0.030477	0.031036	0.084294	0.116599	0.009237	0.004714	0.416281	0.097751	0	0.077757	0.031404	0.02922
2.772	0.266174	0.156208	0.051113	0.204622	0.031183	0.031287	0.086024	0.116765	0.009342	0.004751	0.41807	0.099205	0	0.078997	0.032051	0.030059
2.7725	0.268382	0.157486	0.052498	0.207411	0.031904	0.031573	0.087772	0.116928	0.009447	0.00479	0.419832	0.100658	0	0.080261	0.032713	0.030915
2.773	0.270569	0.158766	0.053905	0.210194	0.03264	0.031893	0.089537	0.117088	0.009555	0.004831	0.421567	0.102108	0	0.081548	0.033391	0.031786
2.7735	0.272734	0.160048	0.055333	0.212972	0.03339	0.032246	0.091319	0.117246	0.009663	0.004872	0.423276	0.103556	0	0.082858	0.034084	0.032674
2.774	0.274876	0.161332	0.056783	0.215742	0.034156	0.032635	0.093118	0.117401	0.009773	0.004915	0.424957	0.105001	0	0.08419	0.034794	0.033577
2.7745	0.276993	0.162617	0.058254	0.218505	0.034936	0.033057	0.094933	0.117555	0.009884	0.004959	0.426613	0.106443	0	0.085545	0.035521	0.034497
2.775	0.279084	0.163902	0.059747	0.221258	0.035732	0.033514	0.096765	0.117707	0.009997	0.005005	0.428242	0.10788	0	0.086923	0.036265	0.035434
2.7755	0.281149	0.165188	0.061261	0.224001	0.036543	0.034006	0.098612	0.117859	0.010112	0.005052	0.429845	0.109314	0	0.088323	0.037027	0.036387
2.776	0.283185	0.166474	0.062796	0.226732	0.037369	0.034533	0.100475	0.118011	0.010227	0.0051	0.431421	0.110742	0	0.089746	0.037807	0.037356
2.7765	0.285192	0.16776	0.064353	0.229452	0.038212	0.035094	0.102353	0.118162	0.010345	0.00515	0.432971	0.112166	0	0.091192	0.038606	0.038343
2.777	0.287168	0.169045	0.065931	0.232158	0.03907	0.03569	0.104246	0.118315	0.010464	0.005202	0.434493	0.113585	0	0.09266	0.039424	0.039346
2.7775	0.289113	0.170328	0.06753	0.23485	0.039944	0.036321	0.106153	0.118469	0.010584	0.005254	0.435988	0.114999	0	0.094151	0.040262	0.040366
2.778	0.291025	0.17161	0.06915	0.237527	0.040834	0.036988	0.108074	0.118624	0.010706	0.005309	0.437454	0.116407	0	0.095664	0.041119	0.041404
2.7785	0.292902	0.172889	0.07079	0.240187	0.041741	0.03769	0.110008	0.118782	0.01083	0.005364	0.438892	0.11781	0	0.097199	0.041997	0.042459
2.779	0.294744	0.174166	0.072452	0.24283	0.042663	0.038426	0.111954	0.118941	0.010955	0.005422	0.440301	0.119207	0	0.098756	0.042896	0.043531
2.7795	0.296549	0.175439	0.074135	0.245455	0.043603	0.039199	0.113913	0.119104	0.011082	0.005481	0.44168	0.120597	0	0.100336	0.043815	0.04462
2.78	0.298317	0.176707	0.075838	0.248059	0.044559	0.040006	0.115884	0.11927	0.011211	0.005542	0.443028	0.121982	0	0.101937	0.044757	0.045727
2.7805	0.300048	0.177971	0.077562	0.250643	0.045531	0.04085	0.117867	0.119439	0.011341	0.005604	0.444347	0.12336	0	0.10356	0.04572	0.046853
2.781	0.30174	0.179229	0.079307	0.253206	0.04652	0.041729	0.11986	0.119612	0.011473	0.005668	0.445635	0.124732	0	0.105204	0.046706	0.047996
2.7815	0.303393	0.18048	0.081072	0.255745	0.047527	0.042644	0.121863	0.119789	0.011607	0.005734	0.446892	0.126098	0	0.106869	0.047715	0.049157
2.782	0.305006	0.181724	0.082858	0.258261	0.04855	0.043595	0.123877	0.119971	0.011742	0.005801	0.448119	0.127457	0	0.108555	0.048747	0.050338
2.7825	0.306579	0.18296	0.084664	0.260753	0.04959	0.044581	0.1259	0.120157	0.011879	0.005871	0.449316	0.12881	0	0.110262	0.049802	0.051537
2.783	0.308111	0.184186	0.086489	0.26322	0.050647	0.045604	0.127932	0.120348	0.012018	0.005943	0.450482	0.130156	0	0.111989	0.050882	0.052755
2.7835	0.309602	0.185403	0.088335	0.265661	0.051721	0.046663	0.129973	0.120545	0.012159	0.006016	0.451618	0.131497	0	0.113736	0.051987	0.053992
2.784	0.31105	0.186609	0.090201	0.268076	0.052812	0.047759	0.132022	0.120746	0.012301	0.006092	0.452725	0.132832	0	0.115504	0.053117	0.055249
2.7845	0.312457	0.187802	0.092086	0.270463	0.05392	0.048891	0.134078	0.120953	0.012446	0.006169	0.453803	0.13416	0	0.117291	0.054272	0.056525
2.785	0.313822	0.188984	0.093991	0.272821	0.055046	0.050059	0.136141	0.121166	0.012592	0.006249	0.454852	0.135483	0	0.119097	0.055453	0.057821
2.7855	0.315144	0.190151	0.095915	0.27515	0.056188	0.051264	0.138211	0.121384	0.012739	0.006331	0.455873	0.1368	0	0.120922	0.056661	0.059137
2.786	0.316425	0.191305	0.097859	0.277449	0.057348	0.052506	0.140286	0.121608	0.012889	0.006416	0.456866	0.138112	0	0.122766	0.057895	0.060474
2.7865	0.317664	0.192444	0.099821	0.279718	0.058525	0.053784	0.142366	0.121838	0.01304	0.006502	0.457832	0.139419	0	0.124628	0.059156	0.061831
2.787	0.318862	0.193567	0.101801	0.281955	0.059719	0.055099	0.14445	0.122073	0.013193	0.006592	0.458771	0.14072	0	0.126508	0.060445	0.063208
2.7875	0.320019	0.194674	0.103801	0.284161	0.06093	0.05645	0.146538	0.122315	0.013348	0.006683	0.459683	0.142017	0	0.128406	0.061762	0.064607
2.788	0.321135	0.195765	0.105818	0.286335	0.062157	0.057839	0.14863	0.122562	0.013505	0.006777	0.460569	0.14331	0	0.130322	0.063107	0.066026
2.7885	0.322211	0.196839	0.107853	0.288477	0.063402	0.059264	0.150723	0.122816	0.013663	0.006874	0.461428	0.1446	0	0.132255	0.06448	0.067467
2.789	0.323245	0.197895	0.109906	0.290588	0.064664	0.060727	0.152818	0.123076	0.013824	0.006974	0.462261	0.145886	0	0.134205	0.065883	0.068929
2.7895	0.32424	0.198933	0.111976	0.292668	0.065942	0.062226	0.154915	0.123342	0.013986	0.007076	0.463069	0.147169	0	0.136172	0.067314	0.070412
2.79	0.325195	0.199951	0.114063	0.294715	0.067237	0.063762	0.157011	0.123615	0.01415	0.007182	0.463852	0.148449	2.2e-05	0.138156	0.068776	0.071918
2.7905	0.32611	0.20095	0.116166	0.29673	0.068549	0.065336	0.159108	0.123894	0.014316	0.00729	0.464611	0.149728	0.000189	0.140156	0.070267	0.073444
2.791	0.326987	0.201929	0.118286	0.298713	0.069877	0.066948	0.161203	0.124181	0.014483	0.007402	0.465346	0.151005	0.000365	0.142172	0.071788	0.074993
2.7915	0.327825	0.202887	0.120422	0.300663	0.071222	0.068597	0.163297	0.124474	0.014653	0.007517	0.466059	0.15228	0.00055	0.144203	0.073339	0.076564
2.792	0.328626	0.203824	0.122573	0.302582	0.072584	0.070284	0.165389	0.124775	0.014825	0.007635	0.466748	0.153555	0.000744	0.14625	0.074921	0.078156
2.7925	0.32939	0.204739	0.124739	0.304468	0.073962	0.072009	0.167478	0.125084	0.014998	0.007756	0.467415	0.154829	0.000947	0.148311	0.076533	0.079771
2.793	0.330119	0.205632	0.12692	0.306322	0.075356	0.073773	0.169564	0.125401	0.015173	0.007881	0.46806	0.156103	0.00116	0.150387	0.078176	0.081408
2.7935	0.330811	0.206503	0.129115	0.308143	0.076766	0.075574	0.171646	0.125726	0.01535	0.00801	0.468683	0.157378	0.001383	0.152476	0.079851	0.083067
2.794	0.331469	0.207351	0.131324	0.309931	0.078193	0.077414	0.173724	0.126061	0.015529	0.008142	0.469284	0.158653	0.001615	0.154579	0.081557	0.084749
2.7945	0.332093	0.208176	0.133547	0.311687	0.079635	0.079293	0.175797	0.126405	0.01571	0.008278	0.469863	0.159931	0.001858	0.156694	0.083294	0.086453
2.795	0.332684	0.208978	0.135782	0.313411	0.081094	0.08121	0.177864	0.126758	0.015893	0.008417	0.470419	0.16121	0.002111	0.158823	0.085062	0.088179
2.7955	0.333243	0.209757	0.138031	0.315103	0.082568	0.083165	0.179926	0.127122	0.016077	0.008561	0.470953	0.162491	0.002374	0.160963	0.086862	0.089927
2.796	0.33377	0.210513	0.140291	0.316762	0.084059	0.085159	0.18198	0.127497	0.016264	0.008708	0.471464	0.163775	0.002648	0.163115	0.088694	0.091698
2.7965	0.334265	0.211246	0.142563	0.318391	0.085565	0.087192	0.184027	0.127882	0.016452	0.008859	0.471952	0.165062	0.002932	0.165279	0.090558	0.093491
2.797	0.334731	0.211955	0.144846	0.319988	0.087088	0.089263	0.186066	0.128279	0.016642	0.009015	0.472417	0.166353	0.003227	0.167454	0.092454	0.095307
2.7975	0.335166	0.21264	0.14714	0.321554	0.088627	0.091373	0.188096	0.128687	0.016834	0.009175	0.472859	0.167647	0.003534	0.16964	0.094381	0.097145
2.798	0.335573	0.213301	0.149443	0.32309	0.090182	0.093521	0.190117	0.129106	0.017028	0.009339	0.473279	0.168945	0.003851	0.171837	0.096341	0.099006
2.7985	0.335953	0.213937	0.151756	0.324596	0.091752	0.095708	0.192129	0.129537	0.017223	0.009507	0.473676	0.170247	0.00418	0.174044	0.098332	0.100889
2.799	0.336306	0.214549	0.154077	0.326072	0.093339	0.097934	0.19413	0.12998	0.017421	0.00968	0.474052	0.171554	0.004521	0.176262	0.100356	0.102795
2.7995	0.336633	0.215136	0.156405	0.327518	0.094941	0.100199	0.196121	0.130435	0.01762	0.009858	0.474407	0.172866	0.004873	0.178489	0.102411	0.104724
2.8	0.336935	0.215698	0.158741	0.328935	0.09656	0.102502	0.198101	0.130903	0.01782	0.01004	0.474742	0.174182	0.005237	0.180725	0.104498	0.106675
2.8005	0.337213	0.216235	0.161083	0.330323	0.098193	0.104844	0.200069	0.131382	0.018022	0.010228	0.475057	0.175504	0.005613	0.18297	0.106617	0.108648
2.801	0.337469	0.216747	0.163431	0.331682	0.099843	0.107225	0.202025	0.131873	0.018226	0.01042	0.475353	0.176831	0.006002	0.185222	0.108768	0.110644
2.8015	0.337701	0.217233	0.165783	0.333012	0.101507	0.109644	0.203969	0.132376	0.018432	0.010617	0.475632	0.178163	0.006403	0.187483	0.11095	0.112662
2.802	0.337912	0.217695	0.16814	0.334313	0.103187	0.112101	0.205899	0.132892	0.018639	0.01082	0.475893	0.179502	0.006816	0.18975	0.113164	0.114702
2.8025	0.338102	0.218132	0.170499	0.335586	0.104881	0.114597	0.207815	0.133419	0.018848	0.011027	0.476139	0.180846	0.007243	0.192024	0.115409	0.116764
2.803	0.338271	0.218544	0.172862	0.33683	0.10659	0.117131	0.209717	0.133959	0.019058	0.01124	0.47637	0.182197	0.007682	0.194303	0.117685	0.118849
2.8035	0.33842	0.218931	0.175226	0.338047	0.108314	0.119704	0.211604	0.134511	0.01927	0.011459	0.476587	0.183554	0.008135	0.196587	0.119993	0.120955
2.804	0.338549	0.219294	0.177592	0.339235	0.110052	0.122314	0.213475	0.135076	0.019483	0.011683	0.476791	0.184919	0.0086	0.198874	0.122331	0.123082
2.8045	0.338659	0.219631	0.179958	0.340394	0.111803	0.124961	0.21533	0.135654	0.019698	0.011913	0.476983	0.186291	0.009079	0.201165	0.124699	0.125232
2.805	0.33875	0.219944	0.182324	0.341526	0.113568	0.127647	0.217169	0.136244	0.019915	0.012149	0.477163	0.187671	0.009572	0.203459	0.127098	0.127402
2.8055	0.338822	0.220232	0.184688	0.342629	0.115347	0.13037	0.21899	0.136847	0.020133	0.012391	0.477332	0.189059	0.010079	0.205753	0.129527	0.129595
2.806	0.338877	0.220495	0.187052	0.343704	0.117138	0.13313	0.220793	0.137463	0.020353	0.012638	0.477491	0.190456	0.0106	0.208049	0.131986	0.131808
2.8065	0.338913	0.220733	0.189412	0.344751	0.118941	0.135928	0.222577	0.138092	0.020574	0.012892	0.477638	0.191862	0.011134	0.210345	0.134474	0.134043
2.807	0.338932	0.220945	0.19177	0.345771	0.120757	0.138762	0.224342	0.138735	0.020797	0.013152	0.477775	0.193279	0.011684	0.21264	0.136991	0.136298
2.8075	0.338933	0.221131	0.194124	0.346763	0.122584	0.141633	0.226087	0.139391	0.021021	0.013418	0.477902	0.194706	0.012248	0.214934	0.139536	0.138574
2.808	0.338917	0.221292	0.196475	0.347729	0.124423	0.144541	0.227812	0.140061	0.021247	0.013691	0.478018	0.196145	0.012826	0.217225	0.14211	0.14087
2.8085	0.338884	0.221427	0.198821	0.348667	0.126273	0.147484	0.229516	0.140745	0.021474	0.01397	0.478124	0.197595	0.01342	0.219514	0.144712	0.143186
2.809	0.338834	0.221535	0.201162	0.34958	0.128133	0.150463	0.231199	0.141444	0.021703	0.014256	0.478219	0.199058	0.014028	0.221798	0.147341	0.145522
2.8095	0.338768	0.221615	0.203499	0.350466	0.130003	0.153478	0.23286	0.142158	0.021933	0.014548	0.478303	0.200533	0.014652	0.224078	0.149998	0.147877
2.81	0.338687	0.221669	0.205831	0.351328	0.131882	0.156528	0.234499	0.142887	0.022165	0.014847	0.478375	0.202023	0.015291	0.226352	0.152681	0.15025
2.8105	0.33859	0.221695	0.208157	0.352164	0.133771	0.159613	0.236115	0.143632	0.022398	0.015153	0.478435	0.203526	0.015946	0.22862	0.15539	0.152642
2.811	0.338477	0.221692	0.210478	0.352977	0.135669	0.162733	0.237708	0.144392	0.022633	0.015466	0.478481	0.205044	0.016617	0.230879	0.158124	0.155051
2.8115	0.33835	0.22166	0.212793	0.353765	0.137575	0.165887	0.239278	0.145169	0.02287	0.015786	0.478515	0.206578	0.017304	0.23313	0.160884	0.157477
2.812	0.338208	0.221599	0.215101	0.35453	0.13949	0.169076	0.240824	0.145961	0.023109	0.016112	0.478534	0.208129	0.018007	0.235372	0.163667	0.15992
2.8125	0.338051	0.221508	0.217404	0.355272	0.141412	0.172299	0.242345	0.14677	0.023349	0.016447	0.478538	0.209696	0.018726	0.237603	0.166475	0.162378
2.813	0.33788	0.221386	0.219699	0.355991	0.143341	0.175556	0.243841	0.147595	0.023592	0.016788	0.478527	0.211281	0.019462	0.239823	0.169306	0.164852
2.8135	0.337693	0.221232	0.221989	0.356687	0.145277	0.178846	0.245311	0.148436	0.023836	0.017137	0.478498	0.212884	0.020214	0.24203	0.172159	0.16734
2.814	0.337492	0.221045	0.224272	0.357362	0.147219	0.18217	0.246755	0.149295	0.024083	0.017493	0.478453	0.214506	0.020984	0.244224	0.175035	0.169843
2.8145	0.337275	0.220826	0.226548	0.358015	0.149167	0.185527	0.248172	0.15017	0.024333	0.017858	0.478388	0.216147	0.02177	0.246405	0.177932	0.172358
2.815	0.337043	0.220574	0.228817	0.358647	0.151121	0.188916	0.249561	0.151061	0.024585	0.01823	0.478304	0.217808	0.022573	0.248571	0.18085	0.174886
2.8155	0.336797	0.220288	0.231079	0.359257	0.153078	0.192337	0.250923	0.15197	0.024839	0.018609	0.478199	0.21949	0.023394	0.250722	0.183789	0.177425
2.816	0.336534	0.219969	0.233335	0.359847	0.15504	0.195789	0.252256	0.152895	0.025097	0.018998	0.478072	0.221192	0.024232	0.252857	0.186748	0.179976
2.8165	0.336257	0.219615	0.235583	0.360418	0.157005	0.199273	0.253562	0.153838	0.025357	0.019394	0.477921	0.222915	0.025087	0.254975	0.189728	0.182537
2.817	0.335963	0.219227	0.237825	0.360968	0.158973	0.202788	0.254838	0.154797	0.02562	0.019799	0.477746	0.224659	0.025961	0.257077	0.192726	0.185107
2.8175	0.335654	0.218805	0.240059	0.3615	0.160943	0.206333	0.256086	0.155774	0.025887	0.020212	0.477546	0.226425	0.026852	0.25916	0.195744	0.187685
2.818	0.335329	0.218348	0.242286	0.362014	0.162915	0.209907	0.257304	0.156767	0.026157	0.020634	0.477319	0.228213	0.027761	0.261224	0.198781	0.190271
2.8185	0.334987	0.217857	0.244507	0.36251	0.164887	0.213511	0.258494	0.157778	0.02643	0.021065	0.477065	0.230023	0.028688	0.263268	0.201836	0.192864
2.819	0.334629	0.217332	0.24672	0.36299	0.166859	0.217144	0.259654	0.158806	0.026706	0.021505	0.476782	0.231855	0.029634	0.265292	0.204909	0.195463
2.8195	0.334253	0.216773	0.248926	0.363453	0.16883	0.220804	0.260785	0.159851	0.026987	0.021954	0.47647	0.233709	0.030597	0.267294	0.208	0.198066
2.82	0.33386	0.216179	0.251126	0.363901	0.1708	0.224493	0.261886	0.160912	0.027271	0.022413	0.476128	0.235585	0.031579	0.269274	0.211107	0.200674
2.8205	0.333449	0.21555	0.253318	0.364334	0.172767	0.228208	0.262957	0.161991	0.027559	0.022881	0.475754	0.237484	0.03258	0.27123	0.214232	0.203286
2.821	0.333018	0.214888	0.255504	0.364753	0.17473	0.23195	0.263998	0.163087	0.027851	0.023359	0.475348	0.239405	0.033599	0.273162	0.217372	0.2059
2.8215	0.332567	0.214191	0.257683	0.365158	0.176689	0.235718	0.265009	0.164199	0.028147	0.023847	0.47491	0.241348	0.034637	0.27507	0.220528	0.208515
2.822	0.332097	0.213462	0.259855	0.365552	0.178642	0.239511	0.26599	0.165328	0.028448	0.024345	0.474438	0.243313	0.035693	0.276952	0.223698	0.211131
2.8225	0.331605	0.212699	0.262019	0.365934	0.180589	0.24333	0.266939	0.166474	0.028753	0.024854	0.473933	0.2453	0.036768	0.278808	0.226884	0.213747
2.823	0.331092	0.211904	0.264175	0.366305	0.182529	0.247174	0.267856	0.167636	0.029062	0.025373	0.473395	0.247308	0.037862	0.280636	0.230083	0.216361
2.8235	0.330557	0.211077	0.266324	0.366667	0.184462	0.251043	0.268742	0.168814	0.029377	0.025904	0.472822	0.249338	0.038975	0.282436	0.233295	0.218973
2.824	0.330001	0.210219	0.268464	0.36702	0.186386	0.254937	0.269595	0.170008	0.029696	0.026446	0.472217	0.251388	0.040107	0.284206	0.236521	0.221582
2.8245	0.329422	0.209331	0.270596	0.367364	0.1883	0.258855	0.270416	0.171219	0.030021	0.026999	0.471579	0.25346	0.041258	0.285945	0.239759	0.224187
2.825	0.328821	0.208413	0.272719	0.367701	0.190205	0.262798	0.271205	0.172446	0.030351	0.027564	0.470907	0.255552	0.042428	0.287653	0.24301	0.226786
2.8255	0.328197	0.207465	0.274832	0.36803	0.1921	0.266765	0.271961	0.173689	0.030686	0.02814	0.470203	0.257664	0.043617	0.289327	0.246272	0.229379
2.826	0.32755	0.206487	0.276937	0.368352	0.193983	0.270757	0.272684	0.174948	0.031027	0.02873	0.469465	0.259797	0.044825	0.290966	0.249546	0.231964
2.8265	0.326879	0.205482	0.279032	0.368668	0.195856	0.274774	0.273375	0.176223	0.031375	0.029331	0.468694	0.261949	0.046053	0.292569	0.252831	0.234542
2.827	0.326185	0.204448	0.281118	0.368978	0.197716	0.278816	0.274033	0.177514	0.031728	0.029946	0.46789	0.264121	0.047299	0.294134	0.256127	0.237109
2.8275	0.325468	0.203386	0.283194	0.369282	0.199563	0.282882	0.274659	0.178821	0.032087	0.030573	0.467053	0.266311	0.048565	0.29566	0.259433	0.239667
2.828	0.324727	0.202298	0.285262	0.36958	0.201397	0.286973	0.275252	0.180143	0.032453	0.031213	0.466182	0.26852	0.04985	0.297146	0.262748	0.242212
2.8285	0.323963	0.201182	0.28732	0.369874	0.203216	0.29109	0.275813	0.181481	0.032825	0.031868	0.465279	0.270747	0.051153	0.29859	0.266073	0.244745
2.829	0.323175	0.200041	0.28937	0.370163	0.205022	0.295232	0.276341	0.182834	0.033205	0.032536	0.464341	0.272991	0.052476	0.299991	0.269406	0.247265
2.8295	0.322366	0.198873	0.291412	0.370447	0.206812	0.2994	0.276837	0.184203	0.033591	0.033218	0.463371	0.275252	0.053819	0.301347	0.272747	0.24977
2.83	0.321535	0.197681	0.293446	0.370728	0.208586	0.303594	0.277301	0.185586	0.033985	0.033914	0.462368	0.277529	0.05518	0.302659	0.276096	0.25226
2.8305	0.320683	0.196463	0.295473	0.371006	0.210346	0.307814	0.277732	0.186984	0.034386	0.034625	0.461332	0.279821	0.05656	0.303923	0.279451	0.254733
2.831	0.319812	0.195221	0.297494	0.37128	0.212089	0.312061	0.27813	0.188397	0.034794	0.03535	0.460263	0.282127	0.057959	0.30514	0.282811	0.25719
2.8315	0.318921	0.193955	0.299508	0.371551	0.213817	0.316334	0.278495	0.189825	0.03521	0.036091	0.459161	0.284447	0.059377	0.306308	0.286176	0.259628
2.832	0.318012	0.192665	0.301517	0.371819	0.21553	0.320635	0.278829	0.191267	0.035634	0.036847	0.458024	0.286778	0.060813	0.307426	0.289545	0.262048
2.8325	0.317086	0.191352	0.30352	0.372085	0.217226	0.324962	0.27913	0.192724	0.036066	0.037619	0.456854	0.289121	0.062268	0.308492	0.292917	0.264448
2.833	0.316144	0.190016	0.305519	0.372348	0.218907	0.329317	0.2794	0.194194	0.036506	0.038407	0.45565	0.291474	0.063741	0.309506	0.29629	0.266828
2.8335	0.315186	0.188658	0.307512	0.372609	0.220573	0.333699	0.279639	0.195679	0.036955	0.03921	0.454411	0.293836	0.065233	0.310466	0.299664	0.269187
2.834	0.314213	0.187278	0.309502	0.37287	0.222222	0.338109	0.279847	0.197177	0.037412	0.04003	0.453136	0.296206	0.066743	0.311372	0.303038	0.271523
2.8345	0.313226	0.185876	0.311487	0.373129	0.223856	0.342546	0.280026	0.198688	0.037879	0.040867	0.451825	0.298583	0.06827	0.312223	0.30641	0.273836
2.835	0.312225	0.184453	0.313468	0.373388	0.225473	0.347012	0.280175	0.200212	0.038354	0.04172	0.450477	0.300966	0.069816	0.313019	0.30978	0.276126
2.8355	0.311211	0.183008	0.315446	0.373646	0.227075	0.351505	0.280296	0.201749	0.03884	0.042591	0.449092	0.303355	0.071378	0.313759	0.313146	0.27839
2.836	0.310185	0.181542	0.31742	0.373905	0.22866	0.356027	0.280388	0.203298	0.039334	0.043479	0.447669	0.305748	0.072958	0.314443	0.316508	0.28063
2.8365	0.309148	0.180055	0.319391	0.374164	0.230229	0.360577	0.280453	0.204858	0.039839	0.044384	0.446208	0.308144	0.074555	0.315072	0.319865	0.282844
2.837	0.308099	0.178548	0.321358	0.374424	0.231782	0.365155	0.280492	0.20643	0.040354	0.045308	0.444709	0.310543	0.076169	0.315644	0.323217	0.285033
2.8375	0.307041	0.177021	0.323321	0.374684	0.233318	0.369761	0.280505	0.208012	0.040879	0.046249	0.443172	0.312942	0.077799	0.316159	0.326562	0.287198
2.838	0.305972	0.175476	0.325281	0.374945	0.234839	0.374396	0.280493	0.209604	0.041415	0.047209	0.441598	0.315343	0.079445	0.316618	0.329902	0.289338
2.8385	0.304894	0.173912	0.327237	0.375207	0.236345	0.379059	0.280458	0.211205	0.041961	0.048188	0.439986	0.317742	0.081106	0.31702	0.333236	0.291455
2.839	0.303807	0.172331	0.329191	0.375469	0.237835	0.383749	0.280399	0.212815	0.042518	0.049185	0.438338	0.320139	0.082783	0.317365	0.336563	0.29355
2.8395	0.302712	0.170732	0.331141	0.375731	0.23931	0.388468	0.28032	0.214433	0.043087	0.050202	0.436653	0.322533	0.084476	0.317652	0.339884	0.295622
2.84	0.301608	0.169118	0.333087	0.375994	0.240771	0.393213	0.280219	0.216058	0.043666	0.051238	0.434931	0.324923	0.086182	0.317882	0.343198	0.297673
2.8405	0.300496	0.167488	0.335031	0.376257	0.242217	0.397986	0.280099	0.217689	0.044257	0.052294	0.433173	0.327309	0.087903	0.318055	0.346506	0.299703
2.841	0.299376	0.165844	0.336971	0.37652	0.243649	0.402786	0.27996	0.219326	0.044859	0.053369	0.43138	0.329687	0.089638	0.31817	0.349806	0.301713
2.8415	0.298249	0.164186	0.338908	0.376783	0.245068	0.407611	0.279803	0.220968	0.045474	0.054465	0.429553	0.332059	0.091386	0.318229	0.353099	0.303703
2.842	0.297116	0.162515	0.340841	0.377046	0.246473	0.412463	0.279629	0.222614	0.0461	0.055581	0.427693	0.334423	0.093146	0.318231	0.356385	0.305676
2.8425	0.295977	0.160832	0.342771	0.377308	0.247864	0.417339	0.279439	0.224263	0.046739	0.056718	0.425802	0.336777	0.09492	0.318175	0.359663	0.307631
2.843	0.294833	0.159139	0.344697	0.37757	0.249242	0.42224	0.279232	0.225916	0.047391	0.057876	0.423881	0.33912	0.096705	0.318063	0.362933	0.309569
2.8435	0.293684	0.157435	0.346618	0.377833	0.250607	0.427165	0.279009	0.22757	0.048056	0.059054	0.421932	0.341452	0.098502	0.317894	0.366195	0.311492
2.844	0.292532	0.155723	0.348535	0.378095	0.25196	0.432112	0.278772	0.229226	0.048735	0.060254	0.419957	0.34377	0.10031	0.317668	0.369449	0.313399
2.8445	0.291376	0.154003	0.350446	0.378358	0.253299	0.437082	0.27852	0.230882	0.049427	0.061476	0.417957	0.346074	0.102129	0.317385	0.372697	0.315291
2.845	0.290219	0.152276	0.352352	0.378621	0.254626	0.442072	0.278253	0.232537	0.050134	0.062718	0.415935	0.348363	0.103958	0.317045	0.375937	0.317169
2.8455	0.28906	0.150543	0.354251	0.378886	0.255941	0.447082	0.277972	0.234192	0.050855	0.063983	0.41389	0.350634	0.105796	0.316648	0.379171	0.319033
2.846	0.287901	0.148806	0.356143	0.379151	0.257244	0.452111	0.277677	0.235844	0.051591	0.065269	0.411826	0.352888	0.107644	0.316194	0.382399	0.320884
2.8465	0.286742	0.147065	0.358028	0.379418	0.258536	0.457157	0.277369	0.237493	0.052343	0.066578	0.409743	0.355121	0.1095	0.315683	0.385622	0.322722
2.847	0.285587	0.145321	0.359905	0.379685	0.259815	0.46222	0.277046	0.239139	0.05311	0.067908	0.407643	0.357334	0.111365	0.315117	0.38884	0.324548
2.8475	0.284434	0.143576	0.361774	0.379954	0.261084	0.467299	0.27671	0.24078	0.053893	0.069261	0.405528	0.359523	0.113237	0.314495	0.392055	0.326361
2.848	0.283286	0.141831	0.363633	0.380225	0.262342	0.472392	0.27636	0.242416	0.054692	0.070635	0.403401	0.361689	0.115117	0.313819	0.395266	0.328162
2.8485	0.282144	0.140085	0.365482	0.380496	0.263589	0.477499	0.275997	0.244047	0.055508	0.072033	0.401263	0.363829	0.117003	0.313088	0.398473	0.329952
2.849	0.28101	0.138342	0.367321	0.380768	0.264826	0.482618	0.275619	0.245673	0.056341	0.073452	0.399117	0.365942	0.118894	0.312303	0.401678	0.33173
2.8495	0.279883	0.1366	0.36915	0.381042	0.266052	0.48775	0.275228	0.247292	0.057191	0.074894	0.396964	0.368026	0.120792	0.311466	0.404879	0.333498
2.85	0.278766	0.134861	0.370966	0.381315	0.267268	0.492891	0.274822	0.248905	0.058059	0.076359	0.394807	0.370081	0.122694	0.310577	0.408077	0.335256
2.8505	0.277659	0.133127	0.372771	0.381588	0.268473	0.498042	0.274402	0.250511	0.058945	0.077846	0.392648	0.372106	0.124601	0.309637	0.411273	0.337004
2.851	0.276564	0.131398	0.374564	0.381861	0.269668	0.503202	0.273967	0.252109	0.059849	0.079356	0.390489	0.3741	0.126512	0.308648	0.414465	0.338744
2.8515	0.27548	0.129674	0.376344	0.382134	0.270853	0.508368	0.273516	0.2537	0.060772	0.080889	0.388332	0.376063	0.128426	0.307611	0.417654	0.340475
2.852	0.27441	0.127958	0.378112	0.382405	0.272029	0.513539	0.27305	0.255283	0.061713	0.082445	0.38618	0.377994	0.130343	0.306528	0.42084	0.3422
2.8525	0.273355	0.126249	0.379868	0.382674	0.273195	0.518715	0.272568	0.256856	0.062674	0.084023	0.384034	0.379893	0.132263	0.305398	0.424021	0.343919
2.853	0.272315	0.124548	0.381612	0.382942	0.274352	0.523893	0.272069	0.25842	0.063654	0.085625	0.381898	0.38176	0.134184	0.304223	0.427198	0.345631
2.8535	0.271292	0.122857	0.383343	0.383208	0.275501	0.529074	0.271554	0.259974	0.064653	0.087249	0.379773	0.383595	0.136106	0.303005	0.430371	0.347338
2.854	0.270287	0.121176	0.385062	0.383471	0.276643	0.534255	0.271022	0.261519	0.065672	0.088897	0.377661	0.385398	0.138029	0.301744	0.433537	0.34904
2.8545	0.269301	0.119506	0.386769	0.383732	0.277778	0.539435	0.270472	0.263053	0.066712	0.090567	0.375566	0.387168	0.139953	0.30044	0.436697	0.350737
2.855	0.268336	0.117847	0.388464	0.383989	0.278907	0.544613	0.269906	0.264576	0.067771	0.09226	0.373487	0.388906	0.141877	0.299095	0.43985	0.352429
2.8555	0.267393	0.116201	0.390149	0.384242	0.280031	0.549789	0.269322	0.266088	0.068851	0.093977	0.371429	0.390612	0.143801	0.29771	0.442995	0.354117
2.856	0.266473	0.114568	0.391824	0.38449	0.281151	0.554961	0.268721	0.267589	0.069951	0.095716	0.369392	0.392287	0.145725	0.296286	0.446131	0.355801
2.8565	0.265576	0.112949	0.393488	0.384734	0.282266	0.560129	0.268103	0.269079	0.071072	0.097478	0.367379	0.393931	0.147648	0.294822	0.449257	0.357482
2.857	0.264704	0.111345	0.395143	0.384973	0.283379	0.565291	0.267468	0.270557	0.072214	0.099263	0.365391	0.395545	0.149569	0.293321	0.452373	0.359159
2.8575	0.263858	0.109756	0.396789	0.385205	0.284489	0.570447	0.266817	0.272024	0.073377	0.10107	0.36343	0.397129	0.151489	0.291783	0.455478	0.360835
2.858	0.263038	0.108182	0.398427	0.385432	0.285598	0.575595	0.266148	0.273477	0.074561	0.1029	0.361497	0.398684	0.153407	0.290209	0.458571	0.362508
2.8585	0.262246	0.106625	0.400058	0.385652	0.286707	0.580736	0.265463	0.274918	0.075766	0.104753	0.359595	0.400209	0.155323	0.2886	0.461652	0.364179
2.859	0.261481	0.105085	0.401682	0.385864	0.287818	0.585867	0.264761	0.276346	0.076992	0.106628	0.357724	0.401706	0.157236	0.286957	0.464719	0.36585
2.8595	0.260744	0.103562	0.4033	0.386068	0.288931	0.590988	0.264041	0.277761	0.07824	0.108526	0.355887	0.403175	0.159146	0.285282	0.467774	0.367521
2.86	0.260036	0.102057	0.404912	0.386263	0.290049	0.596099	0.263305	0.279161	0.07951	0.110445	0.354084	0.404615	0.161053	0.283575	0.470814	0.369191
2.8605	0.259357	0.100571	0.40652	0.386448	0.291171	0.601198	0.262551	0.280546	0.080801	0.112387	0.352317	0.406027	0.162956	0.281839	0.473841	0.370862
2.861	0.258708	0.099104	0.408123	0.386622	0.2923	0.606286	0.26178	0.281917	0.082114	0.114351	0.350587	0.40741	0.164857	0.280073	0.476852	0.372534
2.8615	0.258089	0.097657	0.409723	0.386786	0.293437	0.61136	0.260991	0.283273	0.083448	0.116336	0.348895	0.408765	0.166753	0.27828	0.479848	0.374207
2.862	0.2575	0.096229	0.411319	0.386939	0.294583	0.61642	0.260186	0.284614	0.084804	0.118343	0.347243	0.410091	0.168645	0.27646	0.482828	0.375882
2.8625	0.256941	0.094822	0.412912	0.38708	0.295739	0.621466	0.259364	0.285939	0.086182	0.120371	0.345631	0.411388	0.170534	0.274615	0.485791	0.377558
2.863	0.256413	0.093437	0.414503	0.38721	0.296906	0.626495	0.258524	0.28725	0.087582	0.12242	0.344061	0.412655	0.172417	0.272745	0.488738	0.379237
2.8635	0.255916	0.092072	0.416092	0.387327	0.298085	0.631506	0.257668	0.288545	0.089003	0.12449	0.342534	0.413892	0.174296	0.270853	0.491668	0.380918
2.864	0.25545	0.090729	0.41768	0.387432	0.299278	0.636498	0.256796	0.289826	0.090446	0.12658	0.34105	0.415098	0.176169	0.268937	0.494582	0.382602
2.8645	0.255014	0.089408	0.419266	0.387525	0.300485	0.64147	0.255908	0.291091	0.09191	0.12869	0.339611	0.416273	0.178037	0.267001	0.49748	0.384288
2.865	0.254609	0.08811	0.420852	0.387603	0.301706	0.646419	0.255004	0.292341	0.093396	0.13082	0.338216	0.417416	0.179898	0.265044	0.500363	0.385978
2.8655	0.254235	0.086834	0.422437	0.387667	0.302944	0.651345	0.254084	0.293576	0.094904	0.132969	0.336868	0.418526	0.181753	0.263067	0.503233	0.387671
2.866	0.253892	0.085582	0.424023	0.387717	0.304199	0.656245	0.25315	0.294797	0.096433	0.135137	0.335567	0.419602	0.1836	0.261072	0.506089	0.389369
2.8665	0.253579	0.084352	0.425608	0.387752	0.305472	0.661117	0.252201	0.296002	0.097983	0.137324	0.334313	0.420644	0.18544	0.25906	0.508932	0.39107
2.867	0.253297	0.083146	0.427193	0.387771	0.306763	0.665961	0.251238	0.297193	0.099554	0.13953	0.333108	0.42165	0.187272	0.25703	0.511763	0.392775
2.8675	0.253045	0.081964	0.428779	0.387775	0.308074	0.670773	0.250261	0.29837	0.101146	0.141753	0.331952	0.422619	0.189096	0.254985	0.514584	0.394485
2.868	0.252823	0.080806	0.430364	0.387764	0.309404	0.675552	0.24927	0.299532	0.102759	0.143994	0.330846	0.423552	0.19091	0.252924	0.517393	0.396199
2.8685	0.25263	0.079672	0.431951	0.387736	0.310756	0.680295	0.248266	0.300682	0.104393	0.146253	0.32979	0.424447	0.192716	0.25085	0.520192	0.397917
2.869	0.252468	0.078562	0.433537	0.387693	0.312128	0.685	0.24725	0.301818	0.106048	0.148528	0.328785	0.425303	0.194511	0.248762	0.522981	0.39964
2.8695	0.252334	0.077477	0.435124	0.387633	0.313523	0.689664	0.246221	0.302941	0.107723	0.15082	0.327831	0.426119	0.196296	0.246661	0.525761	0.401367
2.87	0.252229	0.076417	0.436711	0.387557	0.314941	0.694286	0.24518	0.304051	0.109419	0.153127	0.32693	0.426895	0.19807	0.244549	0.528532	0.403097
2.8705	0.252153	0.075381	0.438298	0.387464	0.316381	0.698863	0.244128	0.30515	0.111135	0.155449	0.326081	0.42763	0.199832	0.242427	0.531295	0.404831
2.871	0.252105	0.074371	0.439885	0.387353	0.317844	0.703392	0.243064	0.306236	0.112872	0.157786	0.325285	0.428322	0.201582	0.240295	0.534051	0.406568
2.8715	0.252086	0.073385	0.441473	0.387224	0.319332	0.707872	0.241989	0.307312	0.114629	0.160137	0.324541	0.428971	0.203319	0.238153	0.5368	0.408308
2.872	0.252094	0.072425	0.44306	0.387078	0.320843	0.7123	0.240904	0.308378	0.116406	0.162501	0.323851	0.429577	0.205043	0.236004	0.539543	0.41005
2.8725	0.25213	0.071491	0.444647	0.386916	0.322378	0.716674	0.239809	0.309435	0.118203	0.164877	0.323214	0.430139	0.206752	0.233848	0.54228	0.411795
2.873	0.252194	0.070582	0.446234	0.386737	0.323938	0.720992	0.238704	0.310484	0.120019	0.167266	0.32263	0.430657	0.208446	0.231685	0.545014	0.413541
2.8735	0.252285	0.069698	0.447821	0.386544	0.325523	0.725252	0.237589	0.311527	0.121856	0.169665	0.322099	0.431132	0.210125	0.229517	0.547745	0.41529
2.874	0.252404	0.06884	0.449409	0.386335	0.327133	0.729454	0.236465	0.312564	0.123712	0.172075	0.321622	0.431564	0.211788	0.227343	0.550473	0.41704
2.8745	0.252551	0.068008	0.450998	0.386114	0.328768	0.733596	0.235333	0.313596	0.125587	0.174495	0.321197	0.431954	0.213434	0.225166	0.5532	0.418792
2.875	0.252726	0.067202	0.452589	0.385881	0.330429	0.737677	0.234192	0.314624	0.127482	0.176925	0.320825	0.432302	0.215062	0.222986	0.555927	0.420545
2.8755	0.252928	0.066422	0.454183	0.385638	0.332115	0.741695	0.233044	0.315649	0.129396	0.179362	0.320506	0.43261	0.216672	0.220803	0.558653	0.422298
2.876	0.253158	0.065667	0.455781	0.385385	0.333827	0.745648	0.231888	0.316674	0.131329	0.181807	0.320239	0.432877	0.218262	0.218619	0.56138	0.424051
2.8765	0.253415	0.064939	0.457384	0.385126	0.335564	0.749536	0.230725	0.317698	0.133282	0.18426	0.320024	0.433106	0.219831	0.216435	0.564107	0.425804
2.877	0.2537	0.064236	0.458994	0.38486	0.337327	0.753355	0.229556	0.318723	0.135253	0.186718	0.31986	0.433297	0.22138	0.214251	0.566836	0.427555
2.8775	0.254013	0.063559	0.460611	0.384591	0.339115	0.757106	0.228381	0.319752	0.137243	0.189182	0.319746	0.433452	0.222906	0.212069	0.569565	0.429304
2.878	0.254353	0.062908	0.462236	0.384318	0.340928	0.760784	0.2272	0.320786	0.139253	0.191651	0.319682	0.433572	0.224408	0.209891	0.572296	0.431051
2.8785	0.25472	0.062283	0.463872	0.384044	0.342767	0.76439	0.226013	0.321827	0.141281	0.194124	0.319667	0.43366	0.225886	0.207716	0.575027	0.432796
2.879	0.255114	0.061684	0.465519	0.383771	0.344631	0.76792	0.224821	0.322876	0.143329	0.1966	0.319701	0.433719	0.227338	0.205547	0.577758	0.434537
2.8795	0.255534	0.06111	0.46718	0.383498	0.346521	0.771374	0.223625	0.323935	0.145396	0.199078	0.319781	0.433749	0.228762	0.203385	0.58049	0.436274
2.88	0.255981	0.060562	0.468854	0.383228	0.348437	0.774748	0.222424	0.325005	0.147482	0.201558	0.319907	0.433754	0.230159	0.201231	0.583221	0.438007
2.8805	0.256454	0.06004	0.470544	0.382962	0.350378	0.778042	0.221218	0.326087	0.149586	0.204037	0.320079	0.433735	0.231526	0.199086	0.585952	0.439735
2.881	0.256952	0.059544	0.472251	0.3827	0.352346	0.781254	0.220009	0.327184	0.15171	0.206516	0.320294	0.433695	0.232863	0.196952	0.588682	0.441458
2.8815	0.257477	0.059073	0.473976	0.382445	0.35434	0.784383	0.218797	0.328297	0.153852	0.208993	0.320552	0.433635	0.234169	0.194828	0.591412	0.443175
2.882	0.258027	0.058628	0.475718	0.382196	0.356361	0.787428	0.217581	0.329425	0.156014	0.211467	0.32085	0.433558	0.235442	0.192718	0.59414	0.444885
2.8825	0.258603	0.058208	0.47748	0.381954	0.358409	0.790388	0.216363	0.330572	0.158193	0.213936	0.321189	0.433464	0.236681	0.19062	0.596869	0.446587
2.883	0.259204	0.057814	0.479262	0.381721	0.360483	0.793264	0.215143	0.331737	0.160392	0.216401	0.321566	0.433356	0.237886	0.188538	0.599597	0.448282
2.8835	0.259832	0.057445	0.481064	0.381496	0.362585	0.796054	0.21392	0.332923	0.162608	0.218859	0.321979	0.433235	0.239055	0.18647	0.602324	0.449968
2.884	0.260485	0.057101	0.482887	0.38128	0.364714	0.798759	0.212696	0.334129	0.164844	0.22131	0.322427	0.433104	0.240188	0.184419	0.605051	0.451644
2.8845	0.261163	0.056782	0.484731	0.381073	0.366871	0.801378	0.21147	0.335357	0.167097	0.223752	0.32291	0.432964	0.241283	0.182385	0.607779	0.453312
2.885	0.261868	0.056489	0.486597	0.380876	0.369054	0.80391	0.210243	0.336608	0.169368	0.226184	0.323424	0.432816	0.242339	0.180369	0.610506	0.454971
2.8855	0.262598	0.05622	0.488486	0.380688	0.371265	0.806354	0.209016	0.337882	0.171657	0.228606	0.32397	0.432663	0.243356	0.178372	0.613235	0.456621
2.886	0.263353	0.055977	0.490396	0.380511	0.373503	0.80871	0.207788	0.339181	0.173964	0.231016	0.324545	0.432507	0.244332	0.176395	0.615963	0.458263
2.8865	0.264133	0.055758	0.49233	0.380343	0.375768	0.810976	0.206561	0.340505	0.176289	0.233413	0.325149	0.432348	0.245266	0.174438	0.618693	0.459898
2.887	0.264939	0.055565	0.494286	0.380184	0.378062	0.813152	0.205333	0.341855	0.178631	0.235796	0.325781	0.432188	0.246158	0.172503	0.621423	0.461527
2.8875	0.265768	0.055396	0.496264	0.380036	0.380383	0.815236	0.204107	0.343231	0.18099	0.238164	0.32644	0.43203	0.247008	0.170589	0.624153	0.463151
2.888	0.266622	0.055251	0.498266	0.379896	0.382733	0.817229	0.202882	0.344634	0.183366	0.240515	0.327125	0.431875	0.247813	0.168699	0.626883	0.464771
2.8885	0.2675	0.055132	0.500291	0.379766	0.385112	0.819129	0.201658	0.346065	0.185759	0.242849	0.327835	0.431725	0.248575	0.166832	0.629612	0.466389
2.889	0.268401	0.055037	0.502338	0.379645	0.387519	0.820936	0.200435	0.347523	0.188169	0.245165	0.32857	0.431582	0.249293	0.164989	0.632339	0.468004
2.8895	0.269326	0.054966	0.504409	0.379533	0.389956	0.822651	0.199214	0.349009	0.190595	0.247461	0.329327	0.431446	0.249966	0.163171	0.635064	0.469618
2.89	0.270273	0.054919	0.506502	0.379429	0.392422	0.824274	0.197995	0.350523	0.193038	0.249735	0.330107	0.431319	0.250593	0.161378	0.637786	0.471231
2.8905	0.271242	0.054896	0.508618	0.379333	0.394916	0.825805	0.196778	0.352065	0.195495	0.251987	0.33091	0.431203	0.251175	0.15961	0.640504	0.472844
2.891	0.272233	0.054897	0.510757	0.379246	0.39744	0.827245	0.195564	0.353636	0.197968	0.254215	0.331734	0.431098	0.251711	0.157869	0.643217	0.474459
2.8915	0.273245	0.054922	0.512917	0.379167	0.399993	0.828595	0.194353	0.355236	0.200456	0.256418	0.33258	0.431006	0.252201	0.156155	0.645923	0.476075
2.892	0.274278	0.05497	0.515099	0.379097	0.402575	0.829854	0.193144	0.356864	0.202957	0.258594	0.333447	0.430928	0.252643	0.154467	0.648624	0.477693
2.8925	0.27533	0.055041	0.517304	0.379035	0.405186	0.831023	0.191939	0.358521	0.205472	0.260742	0.334335	0.430864	0.253038	0.152807	0.651317	0.479316
2.893	0.276401	0.055136	0.519529	0.378983	0.407826	0.832102	0.190737	0.360207	0.208	0.262861	0.335243	0.430815	0.253384	0.151174	0.654004	0.480942
2.8935	0.27749	0.055253	0.521777	0.378941	0.410494	0.833092	0.189539	0.361922	0.210541	0.264949	0.336171	0.430782	0.253683	0.14957	0.656683	0.482574
2.894	0.278596	0.055394	0.524045	0.378909	0.413189	0.833991	0.188345	0.363665	0.213094	0.267004	0.337117	0.430767	0.253934	0.147993	0.659357	0.484212
2.8945	0.279718	0.055557	0.526334	0.378889	0.415912	0.8348	0.187154	0.365436	0.215658	0.269026	0.338082	0.430768	0.254137	0.146444	0.662023	0.485857
2.895	0.280856	0.055743	0.528644	0.378882	0.418663	0.835517	0.185968	0.367236	0.218233	0.271013	0.339063	0.430787	0.254293	0.144924	0.664683	0.48751
2.8955	0.282008	0.055951	0.530973	0.378888	0.421439	0.836144	0.184786	0.369064	0.220819	0.272964	0.34006	0.430825	0.254402	0.143432	0.667337	0.489172
2.896	0.283172	0.056181	0.533321	0.378909	0.424241	0.83668	0.183608	0.37092	0.223415	0.274877	0.341071	0.430881	0.254465	0.141968	0.669984	0.490844
2.8965	0.284349	0.056432	0.535688	0.378946	0.427069	0.837124	0.182434	0.372803	0.22602	0.276752	0.342096	0.430956	0.254483	0.140534	0.672624	0.492525
2.897	0.285536	0.056706	0.538072	0.379	0.42992	0.837477	0.181264	0.374714	0.228635	0.278588	0.343134	0.43105	0.254456	0.139127	0.675258	0.494216
2.8975	0.286733	0.057001	0.540474	0.379071	0.432796	0.83774	0.180098	0.376651	0.23126	0.280384	0.344182	0.431163	0.254384	0.13775	0.677885	0.495918
2.898	0.287937	0.057316	0.542891	0.37916	0.435694	0.837912	0.178936	0.378616	0.233893	0.282139	0.345239	0.431296	0.254269	0.136401	0.680505	0.497631
2.8985	0.289148	0.057653	0.545324	0.379269	0.438615	0.837995	0.177777	0.380606	0.236536	0.283852	0.346304	0.431448	0.25411	0.135081	0.683119	0.499354
2.899	0.290364	0.05801	0.547772	0.379397	0.441559	0.837989	0.176622	0.382621	0.239187	0.285524	0.347374	0.43162	0.253909	0.133789	0.685726	0.501088
2.8995	0.291582	0.058388	0.550235	0.379546	0.444524	0.837895	0.17547	0.384661	0.241847	0.287153	0.348449	0.431811	0.253665	0.132527	0.688328	0.502833
2.9	0.292802	0.058785	0.552711	0.379716	0.447511	0.837712	0.17432	0.386725	0.244516	0.288739	0.349526	0.432022	0.25338	0.131293	0.690923	0.504589
2.9005	0.294021	0.059203	0.555202	0.379909	0.450518	0.837441	0.173173	0.388813	0.247193	0.290282	0.350603	0.432252	0.253054	0.130088	0.693513	0.506357
2.901	0.295238	0.059639	0.557705	0.380126	0.453546	0.837083	0.172029	0.390924	0.249879	0.291781	0.351679	0.432501	0.252687	0.128911	0.696097	0.508137
2.9015	0.296451	0.060095	0.560222	0.380367	0.456593	0.836638	0.170886	0.393056	0.252573	0.293236	0.35275	0.43277	0.252281	0.127763	0.698675	0.509928
2.902	0.297657	0.06057	0.562753	0.380633	0.459659	0.836106	0.169745	0.395209	0.255275	0.294647	0.353814	0.433058	0.251837	0.126642	0.701246	0.511731
2.9025	0.298855	0.061063	0.565296	0.380927	0.462742	0.835486	0.168605	0.397382	0.257985	0.296014	0.35487	0.433365	0.251356	0.12555	0.703811	0.513545
2.903	0.300043	0.061574	0.567853	0.381247	0.465843	0.834779	0.167467	0.399574	0.260703	0.297337	0.355916	0.433691	0.250838	0.124486	0.706369	0.515371
2.9035	0.30122	0.062103	0.570423	0.381597	0.468959	0.833984	0.166331	0.401784	0.263428	0.298614	0.356948	0.434037	0.250286	0.123449	0.70892	0.517207
2.904	0.302382	0.06265	0.573007	0.381976	0.47209	0.833099	0.165195	0.40401	0.26616	0.299846	0.357964	0.434402	0.249701	0.12244	0.711462	0.519054
2.9045	0.303529	0.063214	0.575605	0.382385	0.475235	0.832125	0.164061	0.406253	0.268899	0.301033	0.358962	0.434786	0.249085	0.121458	0.713996	0.520911
2.905	0.304659	0.063794	0.578216	0.382824	0.478393	0.831059	0.162927	0.408511	0.271645	0.302176	0.35994	0.435189	0.248438	0.120504	0.716521	0.522778
2.9055	0.305769	0.064391	0.580842	0.383296	0.481564	0.829901	0.161794	0.410782	0.274397	0.303275	0.360895	0.435612	0.247762	0.119576	0.719037	0.524653
2.906	0.306859	0.065004	0.58348	0.383799	0.484746	0.828649	0.160662	0.413065	0.277155	0.30433	0.361825	0.436054	0.247059	0.118675	0.721543	0.526537
2.9065	0.307927	0.065634	0.586132	0.384335	0.487939	0.827303	0.159529	0.41536	0.279919	0.305343	0.362726	0.436514	0.246329	0.117801	0.724038	0.528428
2.907	0.308971	0.066278	0.588796	0.384904	0.491142	0.825862	0.158397	0.417664	0.282689	0.306315	0.363598	0.436994	0.245573	0.116953	0.726524	0.530327
2.9075	0.30999	0.066937	0.591472	0.385507	0.494354	0.824326	0.157264	0.419976	0.285463	0.307246	0.364436	0.437492	0.244794	0.11613	0.728998	0.532231
2.908	0.310982	0.067611	0.59416	0.386145	0.497575	0.822694	0.15613	0.422294	0.288243	0.308138	0.365239	0.438008	0.243992	0.115334	0.73146	0.534143
2.9085	0.311946	0.0683	0.596857	0.386818	0.500803	0.820967	0.154995	0.424617	0.291028	0.308991	0.366004	0.438543	0.243168	0.114562	0.733909	0.53606
2.909	0.31288	0.069002	0.599565	0.387527	0.504037	0.819143	0.153859	0.426943	0.293817	0.309808	0.366728	0.439095	0.242323	0.113816	0.736344	0.537983
2.9095	0.313782	0.069718	0.602281	0.388272	0.507276	0.817222	0.152721	0.42927	0.296611	0.310588	0.367411	0.439664	0.241459	0.113095	0.738764	0.539914
2.91	0.314652	0.070447	0.605006	0.389056	0.510519	0.815206	0.15158	0.431597	0.299408	0.311334	0.368051	0.440249	0.240576	0.112398	0.741167	0.541851
2.9105	0.315489	0.071188	0.607738	0.389877	0.513765	0.813093	0.150438	0.433922	0.302209	0.312045	0.368645	0.440851	0.239677	0.111726	0.743552	0.543796
2.911	0.316291	0.071943	0.610477	0.390737	0.517012	0.810886	0.149293	0.436244	0.305013	0.312723	0.369193	0.441469	0.238762	0.111077	0.745917	0.54575
2.9115	0.31706	0.07271	0.613222	0.391636	0.520258	0.808586	0.148145	0.43856	0.30782	0.313369	0.369695	0.442103	0.237833	0.110453	0.74826	0.547713
2.912	0.317794	0.073488	0.615974	0.392574	0.523503	0.806194	0.146995	0.440868	0.310629	0.313983	0.37015	0.442751	0.23689	0.109852	0.750579	0.549685
2.9125	0.318494	0.074278	0.61873	0.393553	0.526746	0.803714	0.145843	0.443167	0.313439	0.314567	0.370557	0.443414	0.235935	0.109275	0.752872	0.551667
2.913	0.31916	0.07508	0.621491	0.394572	0.529984	0.801148	0.144688	0.445454	0.316251	0.31512	0.370916	0.44409	0.23497	0.10872	0.755137	0.553658
2.9135	0.319792	0.075892	0.624257	0.395632	0.533218	0.798498	0.14353	0.447727	0.319064	0.315643	0.371226	0.44478	0.233995	0.108188	0.757373	0.55566
2.914	0.32039	0.076715	0.627025	0.396734	0.536447	0.795767	0.142371	0.449984	0.321877	0.316136	0.371488	0.445483	0.233012	0.107678	0.759576	0.557673
2.9145	0.320955	0.077548	0.629796	0.397877	0.539668	0.792957	0.14121	0.452224	0.324689	0.316601	0.371702	0.446199	0.232021	0.10719	0.761747	0.559697
2.915	0.321487	0.078392	0.63257	0.399063	0.542882	0.790069	0.140047	0.454445	0.327501	0.317036	0.371869	0.446926	0.231023	0.106723	0.763882	0.561733
2.9155	0.321988	0.079245	0.635345	0.400291	0.546087	0.787107	0.138882	0.456643	0.330311	0.317444	0.37199	0.447665	0.23002	0.106278	0.765981	0.563781
2.916	0.322457	0.080108	0.638123	0.401563	0.549283	0.784072	0.137716	0.458819	0.333119	0.317822	0.372067	0.448415	0.229013	0.105853	0.768043	0.565843
2.9165	0.322896	0.080981	0.640903	0.402878	0.552467	0.780964	0.136549	0.460969	0.335924	0.318173	0.372099	0.449174	0.228003	0.10545	0.770065	0.567918
2.917	0.323304	0.081862	0.643685	0.404237	0.555639	0.777787	0.135381	0.463092	0.338726	0.318496	0.37209	0.449943	0.22699	0.105067	0.772048	0.570009
2.9175	0.323684	0.082753	0.64647	0.405641	0.558797	0.774541	0.134212	0.465188	0.341524	0.318792	0.372041	0.450721	0.225975	0.104704	0.773989	0.572116
2.918	0.324036	0.083653	0.649258	0.40709	0.56194	0.771228	0.133042	0.467255	0.344317	0.31906	0.371952	0.451507	0.22496	0.104361	0.775888	0.57424
2.9185	0.32436	0.084561	0.652048	0.408584	0.565066	0.76785	0.131871	0.469293	0.347104	0.319302	0.371826	0.452301	0.223946	0.104039	0.777743	0.576382
2.919	0.324658	0.085478	0.65484	0.410125	0.568176	0.764407	0.130699	0.471301	0.349885	0.319517	0.371664	0.453102	0.222933	0.103737	0.779554	0.578542
2.9195	0.32493	0.086404	0.657635	0.411711	0.571266	0.760901	0.129527	0.473278	0.352658	0.319706	0.371467	0.453911	0.221923	0.103454	0.781318	0.580721
2.92	0.325178	0.087338	0.660434	0.413345	0.574337	0.757334	0.128354	0.475223	0.355423	0.319869	0.371236	0.454726	0.220916	0.103191	0.783035	0.582919
2.9205	0.325402	0.08828	0.663236	0.415026	0.577388	0.753707	0.12718	0.477136	0.358178	0.320007	0.370973	0.455548	0.219913	0.102947	0.784702	0.585137
2.921	0.325605	0.08923	0.666041	0.416756	0.580418	0.750021	0.126007	0.479018	0.360923	0.320119	0.37068	0.456377	0.218915	0.102723	0.786319	0.587374
2.9215	0.325786	0.090189	0.66885	0.418535	0.583428	0.746278	0.124833	0.480867	0.363655	0.320208	0.370357	0.45721	0.217924	0.102517	0.787883	0.589631
2.922	0.325946	0.091155	0.671662	0.420364	0.586417	0.742478	0.123659	0.482684	0.366374	0.320273	0.370007	0.45805	0.216938	0.10233	0.789394	0.591908
2.9225	0.326088	0.092129	0.674477	0.422245	0.589385	0.738623	0.122486	0.484469	0.369078	0.320315	0.369631	0.458895	0.215961	0.102162	0.79085	0.594204
2.923	0.32621	0.093111	0.677296	0.424176	0.592332	0.734715	0.121314	0.486223	0.371766	0.320334	0.369231	0.459746	0.214991	0.102012	0.792251	0.596519
2.9235	0.326315	0.0941	0.680117	0.42616	0.595259	0.730754	0.120142	0.487946	0.374436	0.320331	0.368807	0.460602	0.21403	0.10188	0.793597	0.598852
2.924	0.326403	0.095097	0.68294	0.428197	0.598164	0.726741	0.118973	0.489638	0.377087	0.320307	0.368361	0.461464	0.213078	0.101765	0.794888	0.601204
2.9245	0.326476	0.096102	0.685764	0.430287	0.601049	0.722677	0.117806	0.491299	0.379717	0.320261	0.367894	0.462332	0.212136	0.101668	0.796124	0.603573
2.925	0.326534	0.097114	0.688588	0.43243	0.603913	0.718564	0.116641	0.49293	0.382324	0.320193	0.367408	0.463206	0.211205	0.101587	0.797305	0.605958
2.9255	0.326579	0.098133	0.691412	0.434627	0.606755	0.714404	0.115479	0.494531	0.384907	0.320105	0.366903	0.464086	0.210284	0.101524	0.798431	0.608359
2.926	0.326612	0.099161	0.694234	0.436879	0.609576	0.710198	0.114321	0.496101	0.387463	0.319996	0.36638	0.464972	0.209376	0.101476	0.799504	0.610774
2.9265	0.326634	0.100195	0.697053	0.439184	0.612375	0.705948	0.113167	0.497642	0.389992	0.319867	0.365841	0.465865	0.20848	0.101445	0.800524	0.613202
2.927	0.326646	0.101237	0.699868	0.441544	0.615152	0.701655	0.112017	0.499153	0.39249	0.319718	0.365288	0.466765	0.207596	0.101429	0.801491	0.615642
2.9275	0.32665	0.102286	0.702678	0.443959	0.617908	0.697321	0.110872	0.500634	0.394956	0.319548	0.36472	0.467672	0.206727	0.101429	0.802404	0.618091
2.928	0.326646	0.103342	0.705484	0.446427	0.620642	0.692948	0.109733	0.502086	0.397389	0.319359	0.364141	0.468586	0.205872	0.101444	0.803265	0.620548
2.9285	0.326636	0.104405	0.708283	0.448949	0.623354	0.688537	0.108599	0.503509	0.399786	0.31915	0.36355	0.469508	0.205032	0.101474	0.804073	0.623012
2.929	0.326621	0.105475	0.711075	0.451525	0.626044	0.684091	0.10747	0.504903	0.402145	0.318921	0.362951	0.470438	0.204209	0.101519	0.804828	0.625481
2.9295	0.326601	0.106552	0.713859	0.454154	0.628711	0.67961	0.106348	0.506268	0.404466	0.318673	0.362343	0.471377	0.203401	0.101579	0.80553	0.627952
2.93	0.326578	0.107636	0.716636	0.456836	0.631357	0.675098	0.105232	0.507604	0.406747	0.318406	0.361729	0.472325	0.202611	0.101653	0.806178	0.630423
2.9305	0.326553	0.108727	0.719404	0.45957	0.633979	0.670555	0.104123	0.508912	0.408987	0.318119	0.361111	0.473281	0.201839	0.101742	0.806773	0.632893
2.931	0.326526	0.109825	0.722162	0.462355	0.636579	0.665985	0.103021	0.510192	0.411184	0.317812	0.360489	0.474248	0.201085	0.101845	0.807314	0.635359
2.9315	0.326498	0.11093	0.724911	0.465191	0.639154	0.661389	0.101926	0.511444	0.413337	0.317486	0.359866	0.475225	0.20035	0.101962	0.807802	0.637819
2.932	0.32647	0.112041	0.727649	0.468078	0.641705	0.65677	0.100839	0.512669	0.415445	0.31714	0.359243	0.476212	0.199636	0.102093	0.808237	0.64027
2.9325	0.326443	0.113159	0.730377	0.471014	0.644231	0.652131	0.09976	0.513868	0.417506	0.316774	0.358621	0.47721	0.198942	0.102238	0.808618	0.642711
2.933	0.326416	0.114283	0.733094	0.473998	0.64673	0.647475	0.098688	0.515041	0.419518	0.316388	0.358003	0.478219	0.198269	0.102397	0.808948	0.645138
2.9335	0.326391	0.115413	0.735798	0.47703	0.649203	0.642805	0.097625	0.516191	0.421481	0.315982	0.357389	0.47924	0.197618	0.102569	0.809224	0.64755
2.934	0.326367	0.11655	0.73849	0.480109	0.651647	0.638122	0.09657	0.517317	0.423393	0.315555	0.35678	0.480272	0.196991	0.102755	0.809449	0.649943
2.9345	0.326346	0.117694	0.741169	0.483235	0.654062	0.633431	0.095525	0.518422	0.425251	0.315106	0.356179	0.481317	0.196386	0.102954	0.809621	0.652315
2.935	0.326327	0.118843	0.743833	0.486406	0.656447	0.628735	0.094488	0.519506	0.427054	0.314637	0.355587	0.482375	0.195806	0.103166	0.80974	0.654664
2.9355	0.326311	0.119998	0.746482	0.489621	0.658801	0.624035	0.093461	0.52057	0.4288	0.314145	0.355005	0.483446	0.19525	0.103391	0.809807	0.656986
2.936	0.326297	0.12116	0.749116	0.49288	0.661123	0.619337	0.092444	0.521616	0.430488	0.313631	0.354434	0.484532	0.194719	0.103628	0.80982	0.659279
2.9365	0.326287	0.122327	0.751732	0.496181	0.663414	0.614642	0.091436	0.522645	0.432114	0.313095	0.353875	0.485632	0.194213	0.103878	0.809778	0.661539
2.937	0.32628	0.123499	0.75433	0.499524	0.665672	0.609955	0.090438	0.523659	0.433678	0.312535	0.353331	0.486747	0.193734	0.104139	0.809682	0.663764
2.9375	0.326276	0.124677	0.756909	0.502908	0.667897	0.605279	0.089451	0.524658	0.435177	0.311951	0.352801	0.487878	0.193281	0.104413	0.809529	0.665951
2.938	0.326275	0.125859	0.759468	0.50633	0.670089	0.600616	0.088474	0.525645	0.436609	0.311343	0.352287	0.489023	0.192855	0.104698	0.809319	0.668097
2.9385	0.326278	0.127047	0.762005	0.509792	0.672248	0.595969	0.087508	0.52662	0.437974	0.310711	0.351789	0.490185	0.192456	0.104994	0.809052	0.670198
2.939	0.326284	0.128239	0.76452	0.51329	0.674374	0.591342	0.086554	0.527585	0.43927	0.310054	0.351309	0.491361	0.192085	0.105301	0.808725	0.672251
2.9395	0.326293	0.129436	0.767011	0.516824	0.676466	0.586736	0.08561	0.528542	0.440494	0.309371	0.350846	0.492553	0.191741	0.105619	0.808337	0.674254
2.94	0.326305	0.130637	0.769476	0.520393	0.678525	0.582155	0.084678	0.529491	0.441647	0.308661	0.350402	0.49376	0.191426	0.105947	0.807887	0.676203
2.9405	0.326321	0.131843	0.771915	0.523996	0.680548	0.577599	0.083757	0.530435	0.442726	0.307925	0.349976	0.494983	0.191139	0.106285	0.807374	0.678094
2.941	0.32634	0.133052	0.774326	0.527632	0.682537	0.573072	0.082848	0.531375	0.44373	0.307161	0.349571	0.496221	0.190881	0.106632	0.806795	0.679924
2.9415	0.326362	0.134266	0.776707	0.531299	0.68449	0.568576	0.081951	0.532312	0.444658	0.306368	0.349184	0.497473	0.190652	0.106989	0.806148	0.681689
2.942	0.326387	0.135484	0.779059	0.534996	0.686409	0.564112	0.081065	0.533248	0.445509	0.305546	0.348818	0.498741	0.190451	0.107354	0.805433	0.683386
2.9425	0.326415	0.136706	0.781378	0.538722	0.688292	0.559682	0.080192	0.534183	0.446281	0.304694	0.348472	0.500023	0.190279	0.107727	0.804645	0.685011
2.943	0.326446	0.137932	0.783663	0.542476	0.69014	0.55529	0.079331	0.535118	0.446973	0.30381	0.348146	0.501321	0.190135	0.108109	0.803784	0.686561
2.9435	0.326479	0.139162	0.785913	0.546256	0.691953	0.550936	0.078482	0.536054	0.447583	0.302895	0.34784	0.502635	0.190021	0.108498	0.802847	0.688032
2.944	0.326515	0.140396	0.788127	0.550063	0.693733	0.546622	0.077645	0.536993	0.448111	0.301948	0.347554	0.503965	0.189935	0.108894	0.801831	0.68942
2.9445	0.326552	0.141634	0.790302	0.553895	0.69548	0.542351	0.076821	0.537936	0.448555	0.300969	0.347287	0.505311	0.189877	0.109298	0.800734	0.690725
2.945	0.326592	0.142875	0.792439	0.55775	0.697194	0.538123	0.07601	0.538883	0.448914	0.299958	0.34704	0.506675	0.189849	0.109708	0.799552	0.691941
2.9455	0.326633	0.144121	0.794534	0.561629	0.698876	0.533942	0.075212	0.539834	0.449185	0.298913	0.346811	0.508055	0.189848	0.110124	0.798283	0.693068
2.946	0.326675	0.14537	0.796589	0.565529	0.700529	0.529807	0.074427	0.540792	0.449369	0.297836	0.346601	0.509454	0.189877	0.110547	0.796924	0.694103
2.9465	0.326719	0.146623	0.7986	0.569451	0.702152	0.525722	0.073655	0.541757	0.449463	0.296726	0.346408	0.510869	0.189934	0.110977	0.795473	0.695044
2.947	0.326765	0.14788	0.800569	0.573393	0.703747	0.521688	0.072896	0.54273	0.449465	0.295584	0.346232	0.512303	0.190019	0.111412	0.793927	0.69589
2.9475	0.326812	0.149141	0.802493	0.577355	0.705316	0.517706	0.072151	0.543711	0.449376	0.29441	0.346072	0.513754	0.190133	0.111853	0.792284	0.696638
2.948	0.32686	0.150406	0.804372	0.581336	0.706861	0.513778	0.071419	0.544702	0.449194	0.293204	0.345927	0.515222	0.190276	0.1123	0.790544	0.697289
2.9485	0.32691	0.151676	0.806205	0.585335	0.708382	0.509906	0.0707	0.545704	0.448918	0.291966	0.345796	0.516707	0.190446	0.112753	0.788705	0.697841
2.949	0.326963	0.152951	0.807992	0.589351	0.709882	0.506091	0.069996	0.546716	0.448548	0.290696	0.345679	0.518209	0.190645	0.11321	0.786765	0.698293
2.9495	0.327017	0.15423	0.809732	0.593383	0.711362	0.502335	0.069305	0.547741	0.448084	0.289396	0.345574	0.519727	0.190872	0.113673	0.784726	0.698646
2.95	0.327074	0.155515	0.811425	0.597432	0.712823	0.498639	0.068627	0.548778	0.447524	0.288064	0.345479	0.521262	0.191126	0.114141	0.782586	0.698898
2.9505	0.327134	0.156805	0.813071	0.601496	0.714266	0.495004	0.067964	0.549829	0.446871	0.286702	0.345394	0.522812	0.191408	0.114614	0.780347	0.699049
2.951	0.327197	0.1581	0.81467	0.605574	0.715693	0.491431	0.067314	0.550894	0.446123	0.285309	0.345318	0.524377	0.191716	0.115092	0.778009	0.699098
2.9515	0.327262	0.159402	0.816223	0.609667	0.717105	0.487922	0.066678	0.551973	0.445282	0.283886	0.345248	0.525956	0.192051	0.115574	0.775573	0.699044
2.952	0.327329	0.160709	0.81773	0.613772	0.718501	0.484478	0.066056	0.553068	0.444348	0.282434	0.345183	0.52755	0.192412	0.11606	0.77304	0.698887
2.9525	0.327399	0.162022	0.819193	0.61789	0.719885	0.481099	0.065448	0.55418	0.443323	0.280953	0.345121	0.529156	0.192798	0.116551	0.77041	0.698627
2.953	0.327471	0.163342	0.820612	0.622018	0.721255	0.477785	0.064854	0.555309	0.442208	0.279443	0.345061	0.530774	0.193209	0.117046	0.767685	0.698265
2.9535	0.327544	0.164668	0.821987	0.626158	0.722615	0.474539	0.064274	0.556456	0.441003	0.277907	0.345002	0.532403	0.193644	0.117544	0.764864	0.697801
2.954	0.32762	0.166	0.823319	0.630306	0.723965	0.471359	0.063707	0.557621	0.439709	0.276344	0.34494	0.534042	0.194102	0.118047	0.761951	0.697236
2.9545	0.327696	0.167339	0.824608	0.634461	0.725307	0.468248	0.063155	0.558805	0.438328	0.274757	0.344876	0.535691	0.194584	0.118552	0.758945	0.696572
2.955	0.327774	0.168684	0.825854	0.638623	0.726643	0.465204	0.062617	0.560009	0.436861	0.273146	0.344807	0.537348	0.195087	0.119061	0.755851	0.69581
2.9555	0.327853	0.170036	0.827057	0.642789	0.727976	0.462229	0.062093	0.561233	0.43531	0.271513	0.344731	0.539013	0.195611	0.119573	0.752669	0.694954
2.956	0.327934	0.171394	0.828218	0.646958	0.729307	0.459323	0.061584	0.562478	0.433676	0.269859	0.344648	0.540686	0.196157	0.120087	0.749404	0.694004
2.9565	0.328015	0.172759	0.829337	0.651128	0.73064	0.456485	0.061089	0.563745	0.431963	0.268186	0.344556	0.542367	0.196722	0.120603	0.746059	0.692963
2.957	0.328097	0.17413	0.830413	0.655297	0.731976	0.453716	0.060608	0.565035	0.430171	0.266495	0.344452	0.544054	0.197306	0.121121	0.742638	0.691834
2.9575	0.328181	0.175507	0.831448	0.659462	0.733319	0.451015	0.060142	0.566347	0.428305	0.264787	0.344336	0.545748	0.197909	0.12164	0.739145	0.690621
2.958	0.328265	0.17689	0.832442	0.663623	0.73467	0.448382	0.059691	0.567683	0.426368	0.263065	0.344206	0.547447	0.19853	0.122161	0.735585	0.689325
2.9585	0.328349	0.17828	0.833393	0.667775	0.736032	0.445817	0.059255	0.569042	0.424361	0.261328	0.34406	0.549152	0.199169	0.122682	0.731962	0.68795
2.959	0.328433	0.179675	0.834303	0.671917	0.737407	0.44332	0.058833	0.570425	0.422289	0.259579	0.343897	0.550862	0.199826	0.123203	0.72828	0.686498
2.9595	0.328517	0.181076	0.835171	0.676047	0.738798	0.440889	0.058426	0.571831	0.420155	0.257818	0.343715	0.552575	0.2005	0.123724	0.724544	0.684973
2.96	0.3286	0.182483	0.835996	0.680161	0.740206	0.438524	0.058034	0.573261	0.417961	0.256048	0.343514	0.55429	0.201192	0.124244	0.720757	0.683377
2.9605	0.328683	0.183896	0.836779	0.684256	0.741633	0.436226	0.057657	0.574713	0.41571	0.254268	0.343293	0.556008	0.201899	0.124763	0.716924	0.681713
2.961	0.328765	0.185314	0.83752	0.688331	0.743081	0.433992	0.057295	0.576188	0.413405	0.25248	0.34305	0.557727	0.202623	0.125281	0.713049	0.679984
2.9615	0.328846	0.186738	0.838219	0.692381	0.744551	0.431823	0.056948	0.577685	0.411049	0.250686	0.342787	0.559445	0.203363	0.125797	0.709135	0.678194
2.962	0.328927	0.188168	0.838877	0.696403	0.746045	0.429718	0.056616	0.579203	0.408644	0.248886	0.342503	0.561163	0.204118	0.12631	0.705185	0.676346
2.9625	0.329007	0.189604	0.839495	0.700395	0.747563	0.427677	0.056299	0.580741	0.406192	0.247082	0.342197	0.56288	0.204887	0.12682	0.701204	0.674443
2.963	0.329088	0.191047	0.840073	0.704352	0.749107	0.425697	0.055996	0.582299	0.403697	0.245275	0.34187	0.564593	0.205671	0.127326	0.697194	0.672487
2.9635	0.32917	0.192497	0.840611	0.708272	0.750679	0.42378	0.055709	0.583876	0.401161	0.243466	0.341521	0.566303	0.206468	0.12783	0.693158	0.670483
2.964	0.329252	0.193955	0.841112	0.71215	0.752278	0.421923	0.055437	0.58547	0.398585	0.241656	0.34115	0.568009	0.207278	0.128329	0.6891	0.668432
2.9645	0.329336	0.195422	0.841574	0.715985	0.753907	0.420126	0.055181	0.587082	0.395973	0.239845	0.340757	0.569709	0.208102	0.128823	0.685022	0.666338
2.965	0.329422	0.196897	0.841998	0.719771	0.755565	0.418389	0.054939	0.588709	0.393328	0.238036	0.340343	0.571402	0.208937	0.129313	0.680926	0.664205
2.9655	0.329511	0.198381	0.842386	0.723507	0.757254	0.41671	0.054712	0.59035	0.39065	0.236228	0.339908	0.573086	0.209784	0.129798	0.676815	0.662034
2.966	0.329602	0.199876	0.842738	0.72719	0.758975	0.415089	0.0545	0.592005	0.387944	0.234423	0.339452	0.574761	0.210641	0.130277	0.67269	0.659829
2.9665	0.329696	0.201381	0.843055	0.730817	0.760727	0.413525	0.054304	0.593672	0.38521	0.232622	0.338976	0.576425	0.211509	0.130751	0.668556	0.657593
2.967	0.329795	0.202897	0.843337	0.734386	0.762512	0.412017	0.054122	0.595351	0.382452	0.230825	0.338481	0.578076	0.212386	0.131218	0.664413	0.655328
2.9675	0.329898	0.204426	0.843586	0.737893	0.76433	0.410566	0.053956	0.597039	0.379672	0.229033	0.337969	0.579713	0.213272	0.13168	0.660263	0.653038
2.968	0.330007	0.205967	0.843801	0.741336	0.76618	0.409169	0.053805	0.598737	0.376871	0.227247	0.33744	0.581335	0.214165	0.132135	0.65611	0.650725
2.9685	0.330122	0.207522	0.843985	0.744713	0.768064	0.407827	0.053669	0.600443	0.374053	0.225466	0.336896	0.58294	0.215065	0.132584	0.651955	0.64839
2.969	0.330246	0.209091	0.844136	0.748023	0.769982	0.406539	0.053548	0.602155	0.371218	0.223693	0.336339	0.584527	0.215971	0.133027	0.6478	0.646037
2.9695	0.330378	0.210674	0.844255	0.751264	0.771933	0.405303	0.053442	0.603872	0.36837	0.221928	0.335769	0.586094	0.216882	0.133463	0.643647	0.643668
2.97	0.33052	0.212273	0.844342	0.754435	0.773916	0.404119	0.053352	0.605593	0.365509	0.22017	0.335189	0.587641	0.217797	0.133893	0.639499	0.641283
2.9705	0.330672	0.213886	0.844397	0.757536	0.775933	0.402985	0.053276	0.607316	0.362638	0.218422	0.334598	0.589165	0.218715	0.134316	0.635357	0.638885
2.971	0.330836	0.215516	0.84442	0.760567	0.777981	0.401901	0.053215	0.609039	0.359759	0.216682	0.333998	0.590667	0.219635	0.134732	0.631223	0.636476
2.9715	0.331012	0.217162	0.84441	0.763526	0.780062	0.400864	0.05317	0.610761	0.356873	0.214952	0.33339	0.592144	0.220557	0.135143	0.627098	0.634056
2.972	0.3312	0.218825	0.844369	0.766414	0.782173	0.399874	0.05314	0.61248	0.353981	0.213231	0.332776	0.593596	0.221479	0.135547	0.622986	0.631627
2.9725	0.331401	0.220504	0.844294	0.76923	0.784314	0.398929	0.053125	0.614195	0.351087	0.211521	0.332158	0.595024	0.222401	0.135946	0.618887	0.62919
2.973	0.331616	0.222201	0.844187	0.771973	0.786484	0.398029	0.053125	0.615905	0.348189	0.209822	0.331536	0.596425	0.223321	0.136339	0.614802	0.626747
2.9735	0.331845	0.223915	0.844047	0.774645	0.788682	0.397172	0.053141	0.617609	0.345291	0.208133	0.330912	0.597799	0.224238	0.136726	0.610733	0.624299
2.974	0.332089	0.225647	0.843874	0.777243	0.790905	0.396357	0.053172	0.619305	0.342393	0.206455	0.330288	0.599146	0.225152	0.137109	0.606682	0.621848
2.9745	0.332347	0.227397	0.843667	0.779768	0.793153	0.395585	0.053218	0.620994	0.339496	0.204788	0.329666	0.600465	0.226062	0.137487	0.602649	0.619394
2.975	0.33262	0.229165	0.843425	0.782219	0.795423	0.394854	0.053281	0.622673	0.336601	0.203132	0.329046	0.601754	0.226968	0.137861	0.598636	0.616938
2.9755	0.332909	0.230951	0.843149	0.784598	0.797713	0.394163	0.053358	0.624342	0.33371	0.201488	0.328431	0.603013	0.227868	0.13823	0.594643	0.614482
2.976	0.333214	0.232757	0.842838	0.786903	0.800021	0.393513	0.053451	0.625999	0.330823	0.199854	0.327823	0.604241	0.228761	0.138596	0.590671	0.612026
2.9765	0.333535	0.23458	0.842491	0.789134	0.802344	0.392902	0.05356	0.627643	0.32794	0.198231	0.327222	0.605436	0.229648	0.138958	0.58672	0.60957
2.977	0.333873	0.236423	0.842107	0.791293	0.80468	0.392329	0.053684	0.629272	0.325063	0.196619	0.326631	0.606598	0.230527	0.139317	0.582793	0.607115
2.9775	0.334228	0.238284	0.841686	0.793378	0.807026	0.391794	0.053823	0.630884	0.322192	0.195017	0.326051	0.607726	0.231399	0.139674	0.578888	0.604662
2.978	0.3346	0.240164	0.841228	0.79539	0.809379	0.391297	0.053978	0.632478	0.319328	0.193426	0.325482	0.608818	0.232261	0.140028	0.575006	0.602209
2.9785	0.334989	0.242062	0.840733	0.79733	0.811736	0.390836	0.054148	0.634053	0.316472	0.191844	0.324928	0.609875	0.233114	0.14038	0.571147	0.599757
2.979	0.335395	0.243979	0.840199	0.799197	0.814094	0.390411	0.054334	0.635607	0.313623	0.190272	0.324388	0.610895	0.233957	0.140731	0.567312	0.597307
2.9795	0.335818	0.245913	0.839628	0.800993	0.81645	0.390021	0.054535	0.637139	0.310784	0.188709	0.323864	0.611879	0.234789	0.14108	0.563499	0.594856
2.98	0.336259	0.247866	0.839019	0.802717	0.818799	0.389665	0.054752	0.638649	0.307953	0.187155	0.323358	0.612826	0.235611	0.141428	0.559709	0.592405
2.9805	0.336716	0.249837	0.838371	0.804372	0.821139	0.389342	0.054983	0.640135	0.305133	0.185609	0.322869	0.613737	0.23642	0.141774	0.555941	0.589954
2.981	0.337191	0.251825	0.837687	0.805956	0.823465	0.389051	0.05523	0.641596	0.302324	0.18407	0.3224	0.614609	0.237218	0.14212	0.552195	0.587502
2.9815	0.337682	0.25383	0.836965	0.80747	0.825774	0.388792	0.055492	0.643033	0.299526	0.182539	0.321951	0.615444	0.238004	0.142465	0.54847	0.585047
2.982	0.338189	0.255851	0.836208	0.808915	0.828062	0.388563	0.055768	0.644443	0.29674	0.181015	0.321524	0.61624	0.238778	0.14281	0.544764	0.582591
2.9825	0.338713	0.257888	0.835415	0.81029	0.830326	0.388362	0.056059	0.645826	0.293967	0.179497	0.321118	0.616997	0.239539	0.143155	0.541077	0.58013
2.983	0.339252	0.25994	0.834586	0.811597	0.832562	0.38819	0.056365	0.64718	0.291207	0.177985	0.320734	0.617714	0.240286	0.143499	0.537408	0.577665
2.9835	0.339806	0.262007	0.833723	0.812833	0.834767	0.388043	0.056686	0.648506	0.288461	0.176477	0.320374	0.618391	0.241021	0.143843	0.533756	0.575194
2.984	0.340375	0.264088	0.832824	0.814	0.836938	0.387921	0.057021	0.649803	0.285728	0.174974	0.320037	0.619027	0.241741	0.144187	0.530119	0.572716
2.9845	0.340958	0.266183	0.83189	0.815096	0.839071	0.387823	0.05737	0.65107	0.283011	0.173475	0.319724	0.619621	0.242447	0.144531	0.526496	0.57023
2.985	0.341554	0.268289	0.830919	0.81612	0.841163	0.387748	0.057734	0.652306	0.280308	0.171979	0.319436	0.620172	0.243138	0.144876	0.522887	0.567733
2.9855	0.342164	0.270407	0.829912	0.817072	0.843211	0.387694	0.058111	0.653512	0.277621	0.170485	0.319173	0.620679	0.243814	0.145221	0.51929	0.565226
2.986	0.342786	0.272536	0.828868	0.817951	0.845213	0.387659	0.058503	0.654687	0.274951	0.168993	0.318936	0.621141	0.244473	0.145567	0.515704	0.562707
2.9865	0.34342	0.274675	0.827785	0.818754	0.847167	0.387643	0.058908	0.655831	0.272297	0.167501	0.318724	0.621557	0.245116	0.145914	0.512129	0.560175
2.987	0.344065	0.276823	0.826663	0.819482	0.849071	0.387643	0.059328	0.656942	0.269661	0.166011	0.318537	0.621925	0.245741	0.146262	0.508563	0.557628
