datacolumns 17
datarows 1163
time	addmag_r	bicfemlh_r	gaslat_r	gasmed_r	gmax_r	gmed_r	gra_r	perlong_r	recfem_r	sar_r	semimem_r	sol_r	tfl_r	tibant_r	vaslat_r	vasmed_r
2.778	0.106088	0.032302	0.004645	0.005233	0.019018	0.054143	0.113221	0.014332	0.002784	0.015848	0.034109	0.002513	0.00348	0.068777	0.001785	0.001162
2.7785	0.10649	0.032503	0.00463	0.005301	0.019077	0.055417	0.11333	0.014262	0.002783	0.015917	0.034168	0.002468	0.003483	0.068204	0.001784	0.001159
2.779	0.106903	0.032705	0.004614	0.00537	0.019136	0.056711	0.11343	0.014192	0.002783	0.015984	0.034228	0.002424	0.003491	0.067634	0.001783	0.001155
2.7795	0.107326	0.032906	0.004599	0.005441	0.019196	0.058027	0.113523	0.014121	0.002782	0.016049	0.034289	0.00238	0.003504	0.067066	0.001782	0.001153
2.78	0.10776	0.033108	0.004584	0.005514	0.019256	0.059362	0.113606	0.01405	0.002782	0.016113	0.034352	0.002336	0.00352	0.0665	0.001781	0.00115
2.7805	0.108202	0.03331	0.004569	0.00559	0.019317	0.060718	0.11368	0.013978	0.002781	0.016175	0.034416	0.002292	0.003541	0.065937	0.00178	0.001147
2.781	0.108654	0.033512	0.004555	0.005667	0.019379	0.062094	0.113744	0.013905	0.002781	0.016235	0.034482	0.002249	0.003566	0.065375	0.001779	0.001144
2.7815	0.109114	0.033715	0.00454	0.005746	0.019441	0.063491	0.113797	0.013832	0.002781	0.016293	0.03455	0.002206	0.003595	0.064816	0.001778	0.001142
2.782	0.109581	0.033918	0.004526	0.005827	0.019504	0.064907	0.11384	0.013758	0.00278	0.01635	0.03462	0.002163	0.003628	0.06426	0.001777	0.00114
2.7825	0.110057	0.034121	0.004512	0.00591	0.019567	0.066343	0.113871	0.013684	0.00278	0.016404	0.034692	0.00212	0.003665	0.063705	0.001776	0.001137
2.783	0.110539	0.034325	0.004498	0.005995	0.019631	0.067799	0.11389	0.01361	0.00278	0.016455	0.034766	0.002077	0.003705	0.063153	0.001775	0.001135
2.7835	0.111028	0.03453	0.004484	0.006083	0.019696	0.069275	0.113896	0.013535	0.00278	0.016505	0.034841	0.002035	0.003749	0.062603	0.001774	0.001133
2.784	0.111522	0.034735	0.004471	0.006172	0.019762	0.07077	0.113889	0.013459	0.00278	0.016552	0.034919	0.001993	0.003796	0.062055	0.001774	0.001131
2.7845	0.112022	0.034941	0.004457	0.006264	0.019828	0.072284	0.113869	0.013383	0.002781	0.016597	0.035	0.001951	0.003847	0.061509	0.001773	0.001129
2.785	0.112527	0.035147	0.004444	0.006358	0.019895	0.073817	0.113834	0.013307	0.002781	0.016639	0.035082	0.001909	0.0039	0.060965	0.001772	0.001128
2.7855	0.113036	0.035354	0.00443	0.006455	0.019963	0.075369	0.113784	0.013231	0.002781	0.016678	0.035167	0.001868	0.003957	0.060424	0.001772	0.001126
2.786	0.113549	0.035561	0.004417	0.006553	0.020032	0.076939	0.113718	0.013154	0.002782	0.016715	0.035254	0.001827	0.004016	0.059884	0.001771	0.001125
2.7865	0.114065	0.035769	0.004404	0.006655	0.020101	0.078528	0.113635	0.013076	0.002782	0.016749	0.035344	0.001786	0.004079	0.059347	0.00177	0.001123
2.787	0.114583	0.035978	0.00439	0.006758	0.020172	0.080135	0.113536	0.012998	0.002783	0.01678	0.035436	0.001746	0.004143	0.058811	0.00177	0.001122
2.7875	0.115103	0.036187	0.004377	0.006864	0.020243	0.081759	0.113418	0.01292	0.002784	0.016809	0.03553	0.001706	0.004211	0.058277	0.00177	0.001121
2.788	0.115624	0.036396	0.004363	0.006973	0.020315	0.0834	0.113282	0.012842	0.002785	0.016835	0.035627	0.001666	0.004281	0.057745	0.001769	0.001119
2.7885	0.116146	0.036606	0.00435	0.007084	0.020388	0.085059	0.113126	0.012763	0.002786	0.016858	0.035726	0.001627	0.004353	0.057214	0.001769	0.001118
2.789	0.116668	0.036816	0.004336	0.007198	0.020462	0.086734	0.112951	0.012684	0.002787	0.016879	0.035827	0.001588	0.004427	0.056685	0.001769	0.001117
2.7895	0.117188	0.037027	0.004322	0.007314	0.020537	0.088426	0.112754	0.012605	0.002788	0.016896	0.035931	0.00155	0.004504	0.056157	0.001769	0.001116
2.79	0.117708	0.037237	0.004308	0.007433	0.020613	0.090133	0.112537	0.012525	0.00279	0.016911	0.036038	0.001511	0.004582	0.05563	0.001769	0.001115
2.7905	0.118225	0.037448	0.004293	0.007555	0.02069	0.091855	0.112297	0.012444	0.002791	0.016923	0.036147	0.001474	0.004663	0.055104	0.001769	0.001115
2.791	0.118739	0.037659	0.004279	0.00768	0.020767	0.093593	0.112036	0.012363	0.002793	0.016932	0.036258	0.001436	0.004745	0.05458	0.001769	0.001114
2.7915	0.11925	0.03787	0.004264	0.007807	0.020846	0.095344	0.111753	0.012282	0.002794	0.016938	0.036372	0.0014	0.004828	0.054056	0.001769	0.001113
2.792	0.119757	0.03808	0.004249	0.007937	0.020926	0.09711	0.111449	0.012201	0.002796	0.016941	0.036488	0.001363	0.004914	0.053533	0.00177	0.001112
2.7925	0.120259	0.038291	0.004233	0.00807	0.021007	0.098888	0.111122	0.012119	0.002798	0.016942	0.036606	0.001327	0.005	0.05301	0.00177	0.001112
2.793	0.120755	0.0385	0.004217	0.008205	0.021089	0.10068	0.110773	0.012036	0.0028	0.016939	0.036727	0.001292	0.005088	0.052487	0.001771	0.001111
2.7935	0.121246	0.03871	0.004201	0.008344	0.021171	0.102483	0.110402	0.011953	0.002802	0.016934	0.036849	0.001257	0.005177	0.051964	0.001772	0.001111
2.794	0.12173	0.038919	0.004184	0.008485	0.021255	0.104298	0.110009	0.011869	0.002805	0.016927	0.036974	0.001223	0.005267	0.051442	0.001773	0.001111
2.7945	0.122206	0.039127	0.004167	0.00863	0.02134	0.106124	0.109595	0.011785	0.002807	0.016917	0.037101	0.00119	0.005359	0.050919	0.001774	0.00111
2.795	0.122675	0.039334	0.004149	0.008777	0.021426	0.107959	0.109159	0.011701	0.00281	0.016904	0.037231	0.001157	0.005451	0.050396	0.001775	0.00111
2.7955	0.123135	0.03954	0.004131	0.008928	0.021513	0.109804	0.108701	0.011616	0.002813	0.016889	0.037362	0.001124	0.005544	0.049873	0.001776	0.00111
2.796	0.123587	0.039745	0.004112	0.009081	0.021602	0.111658	0.108221	0.011531	0.002816	0.016871	0.037495	0.001093	0.005638	0.049349	0.001778	0.00111
2.7965	0.12403	0.039949	0.004093	0.009237	0.021691	0.113519	0.107721	0.011445	0.002819	0.01685	0.03763	0.001061	0.005733	0.048824	0.001779	0.00111
2.797	0.124464	0.040151	0.004073	0.009397	0.021781	0.115387	0.1072	0.011359	0.002822	0.016828	0.037766	0.001031	0.005829	0.048299	0.001781	0.00111
2.7975	0.124888	0.040353	0.004053	0.00956	0.021872	0.117261	0.106659	0.011272	0.002826	0.016802	0.037905	0.001001	0.005925	0.047773	0.001783	0.00111
2.798	0.125304	0.040552	0.004031	0.009726	0.021964	0.11914	0.106098	0.011185	0.002829	0.016775	0.038045	0.000973	0.006021	0.047246	0.001786	0.001111
2.7985	0.12571	0.04075	0.00401	0.009895	0.022057	0.121024	0.105518	0.011098	0.002833	0.016745	0.038187	0.000944	0.006118	0.046717	0.001788	0.001111
2.799	0.126107	0.040946	0.003987	0.010067	0.022151	0.12291	0.10492	0.01101	0.002837	0.016712	0.03833	0.000917	0.006216	0.046188	0.001791	0.001111
2.7995	0.126495	0.041141	0.003964	0.010242	0.022246	0.124799	0.104303	0.010922	0.002841	0.016678	0.038475	0.000891	0.006313	0.045657	0.001794	0.001112
2.8	0.126873	0.041333	0.003941	0.010421	0.022342	0.12669	0.10367	0.010834	0.002845	0.016641	0.038621	0.000865	0.006411	0.045125	0.001797	0.001113
2.8005	0.127242	0.041523	0.003916	0.010603	0.022438	0.128581	0.10302	0.010745	0.00285	0.016601	0.038768	0.00084	0.006509	0.044591	0.0018	0.001113
2.801	0.127601	0.04171	0.003892	0.010788	0.022535	0.130471	0.102354	0.010657	0.002854	0.01656	0.038917	0.000816	0.006608	0.044057	0.001804	0.001114
2.8015	0.12795	0.041896	0.003866	0.010976	0.022633	0.13236	0.101673	0.010568	0.002859	0.016516	0.039067	0.000793	0.006706	0.043521	0.001808	0.001115
2.802	0.128288	0.042078	0.00384	0.011168	0.022732	0.134246	0.100977	0.01048	0.002864	0.016469	0.039217	0.000772	0.006804	0.042984	0.001812	0.001116
2.8025	0.128617	0.042258	0.003813	0.011363	0.022831	0.136129	0.100267	0.010391	0.002869	0.016421	0.039369	0.000751	0.006903	0.042446	0.001817	0.001117
2.803	0.128935	0.042434	0.003786	0.011562	0.022931	0.138007	0.099544	0.010302	0.002875	0.016371	0.039521	0.000731	0.007001	0.041908	0.001821	0.001118
2.8035	0.129242	0.042608	0.003758	0.011764	0.023031	0.139879	0.098807	0.010214	0.00288	0.016318	0.039674	0.000712	0.007099	0.041368	0.001827	0.001119
2.804	0.129539	0.042777	0.00373	0.011969	0.023131	0.141744	0.098059	0.010126	0.002886	0.016264	0.039827	0.000695	0.007197	0.040828	0.001832	0.00112
2.8045	0.129825	0.042944	0.003701	0.012177	0.023232	0.143602	0.097299	0.010038	0.002892	0.016208	0.039981	0.000678	0.007294	0.040287	0.001838	0.001121
2.805	0.130101	0.043107	0.003671	0.012389	0.023334	0.145451	0.096528	0.00995	0.002898	0.016149	0.040135	0.000663	0.007392	0.039746	0.001844	0.001123
2.8055	0.130365	0.043265	0.003641	0.012604	0.023435	0.14729	0.095746	0.009863	0.002904	0.016089	0.040288	0.000649	0.007489	0.039205	0.001851	0.001124
2.806	0.130619	0.04342	0.003611	0.012822	0.023537	0.149119	0.094954	0.009775	0.00291	0.016028	0.040442	0.000636	0.007586	0.038663	0.001858	0.001126
2.8065	0.130863	0.043571	0.00358	0.013044	0.023639	0.150935	0.094153	0.009689	0.002917	0.015964	0.040595	0.000624	0.007682	0.038122	0.001866	0.001127
2.807	0.131095	0.043717	0.003548	0.013269	0.023741	0.152738	0.093343	0.009603	0.002923	0.015899	0.040749	0.000614	0.007778	0.037581	0.001874	0.001129
2.8075	0.131317	0.043858	0.003516	0.013497	0.023842	0.154526	0.092526	0.009517	0.00293	0.015833	0.040901	0.000605	0.007873	0.03704	0.001882	0.001131
2.808	0.131528	0.043995	0.003484	0.013728	0.023944	0.156299	0.0917	0.009432	0.002937	0.015765	0.041053	0.000597	0.007967	0.0365	0.001891	0.001133
2.8085	0.131729	0.044127	0.003451	0.013963	0.024046	0.158055	0.090869	0.009348	0.002944	0.015695	0.041205	0.000591	0.008061	0.035961	0.001901	0.001135
2.809	0.131919	0.044253	0.003418	0.014201	0.024148	0.159793	0.090031	0.009264	0.002952	0.015624	0.041356	0.000587	0.008155	0.035422	0.00191	0.001137
2.8095	0.132098	0.044375	0.003384	0.014442	0.02425	0.161512	0.089188	0.009181	0.002959	0.015552	0.041506	0.000583	0.008247	0.034885	0.001921	0.001139
2.81	0.132267	0.044491	0.00335	0.014686	0.024351	0.163211	0.088341	0.009099	0.002967	0.015478	0.041655	0.000582	0.008339	0.034349	0.001932	0.001142
2.8105	0.132426	0.044601	0.003316	0.014933	0.024453	0.164889	0.087489	0.009018	0.002975	0.015403	0.041803	0.000582	0.00843	0.033814	0.001943	0.001145
2.811	0.132574	0.044705	0.003281	0.015183	0.024554	0.166545	0.086634	0.008937	0.002983	0.015327	0.04195	0.000583	0.008519	0.03328	0.001956	0.001147
2.8115	0.132712	0.044803	0.003246	0.015436	0.024654	0.168177	0.085777	0.008858	0.002991	0.01525	0.042096	0.000587	0.008608	0.032748	0.001968	0.00115
2.812	0.132839	0.044895	0.00321	0.015692	0.024755	0.169785	0.084917	0.00878	0.002999	0.015172	0.04224	0.000592	0.008696	0.032218	0.001982	0.001154
2.8125	0.132955	0.04498	0.003174	0.015951	0.024854	0.171369	0.084056	0.008702	0.003008	0.015092	0.042382	0.000598	0.008783	0.03169	0.001995	0.001157
2.813	0.133061	0.045058	0.003138	0.016213	0.024954	0.172927	0.083194	0.008626	0.003016	0.015012	0.042523	0.000607	0.008868	0.031164	0.00201	0.001161
2.8135	0.133156	0.045129	0.003102	0.016478	0.025052	0.174458	0.082332	0.008551	0.003025	0.01493	0.042661	0.000617	0.008952	0.03064	0.002025	0.001164
2.814	0.13324	0.045192	0.003065	0.016746	0.02515	0.175963	0.081469	0.008477	0.003034	0.014847	0.042798	0.000629	0.009035	0.030118	0.002041	0.001168
2.8145	0.133314	0.045248	0.003028	0.017016	0.025247	0.177439	0.080608	0.008405	0.003043	0.014764	0.042932	0.000643	0.009117	0.029598	0.002058	0.001173
2.815	0.133376	0.045295	0.00299	0.017289	0.025344	0.178887	0.079747	0.008334	0.003053	0.01468	0.043064	0.00066	0.009197	0.029082	0.002075	0.001177
2.8155	0.133427	0.045334	0.002952	0.017564	0.025439	0.180306	0.078887	0.008264	0.003062	0.014595	0.043193	0.000678	0.009276	0.028567	0.002093	0.001182
2.816	0.133467	0.045365	0.002914	0.017842	0.025534	0.181694	0.078029	0.008196	0.003072	0.014508	0.04332	0.000698	0.009353	0.028056	0.002112	0.001187
2.8165	0.133496	0.045386	0.002876	0.018122	0.025628	0.183051	0.077174	0.008129	0.003082	0.014422	0.043444	0.00072	0.009429	0.027547	0.002131	0.001192
2.817	0.133514	0.045398	0.002838	0.018404	0.02572	0.184377	0.076321	0.008063	0.003092	0.014334	0.043565	0.000744	0.009503	0.027042	0.002152	0.001198
2.8175	0.133521	0.045401	0.002799	0.018688	0.025812	0.18567	0.075471	0.008	0.003102	0.014246	0.043683	0.000771	0.009575	0.02654	0.002173	0.001204
2.818	0.133517	0.045394	0.00276	0.018975	0.025902	0.18693	0.074624	0.007938	0.003112	0.014156	0.043797	0.0008	0.009646	0.026041	0.002195	0.00121
2.8185	0.133501	0.045378	0.002721	0.019264	0.025991	0.188157	0.07378	0.007877	0.003123	0.014067	0.043909	0.000831	0.009715	0.025545	0.002217	0.001217
2.819	0.133474	0.045351	0.002681	0.019554	0.026079	0.189349	0.072941	0.007818	0.003133	0.013976	0.044016	0.000864	0.009782	0.025053	0.002241	0.001224
2.8195	0.133436	0.045315	0.002642	0.019846	0.026166	0.190507	0.072106	0.007761	0.003144	0.013885	0.04412	0.0009	0.009848	0.024565	0.002265	0.001231
2.82	0.133387	0.045268	0.002602	0.02014	0.026251	0.19163	0.071275	0.007706	0.003155	0.013793	0.04422	0.000938	0.009912	0.024081	0.00229	0.001239
2.8205	0.133327	0.045211	0.002562	0.020435	0.026335	0.192716	0.070449	0.007653	0.003167	0.0137	0.044316	0.000978	0.009974	0.0236	0.002316	0.001247
2.821	0.133255	0.045143	0.002521	0.020732	0.026418	0.193767	0.069628	0.007601	0.003178	0.013607	0.044408	0.001022	0.010035	0.023124	0.002342	0.001256
2.8215	0.133171	0.045066	0.002481	0.02103	0.0265	0.194781	0.068813	0.007552	0.00319	0.013513	0.044495	0.001067	0.010094	0.022651	0.00237	0.001265
2.822	0.133076	0.044978	0.00244	0.02133	0.02658	0.195757	0.068003	0.007504	0.003202	0.013418	0.044578	0.001116	0.010151	0.022183	0.002399	0.001275
2.8225	0.132969	0.04488	0.002399	0.02163	0.026658	0.196696	0.067198	0.007458	0.003214	0.013323	0.044656	0.001166	0.010206	0.021719	0.002428	0.001285
2.823	0.13285	0.044771	0.002358	0.021931	0.026735	0.197596	0.0664	0.007414	0.003226	0.013227	0.04473	0.00122	0.01026	0.02126	0.002458	0.001295
2.8235	0.13272	0.044653	0.002317	0.022233	0.026811	0.198458	0.065608	0.007373	0.003239	0.013131	0.044798	0.001276	0.010312	0.020805	0.002489	0.001306
2.824	0.132576	0.044524	0.002276	0.022536	0.026885	0.19928	0.064823	0.007333	0.003251	0.013034	0.044861	0.001336	0.010362	0.020355	0.002521	0.001318
2.8245	0.132421	0.044385	0.002234	0.022839	0.026958	0.200062	0.064045	0.007295	0.003264	0.012937	0.044919	0.001398	0.010411	0.01991	0.002554	0.00133
2.825	0.132252	0.044235	0.002193	0.023142	0.027029	0.200803	0.063273	0.00726	0.003277	0.012838	0.044972	0.001462	0.010457	0.019469	0.002588	0.001342
2.8255	0.132071	0.044076	0.002151	0.023446	0.027099	0.201502	0.062509	0.007226	0.003291	0.01274	0.045019	0.00153	0.010503	0.019034	0.002623	0.001355
2.826	0.131876	0.043906	0.002109	0.02375	0.027167	0.20216	0.061752	0.007195	0.003304	0.012641	0.04506	0.001601	0.010546	0.018603	0.002659	0.001369
2.8265	0.131668	0.043727	0.002067	0.024054	0.027233	0.202774	0.061002	0.007166	0.003318	0.012541	0.045096	0.001675	0.010588	0.018177	0.002696	0.001383
2.827	0.131446	0.043537	0.002025	0.024357	0.027297	0.203345	0.06026	0.007139	0.003332	0.012441	0.045125	0.001752	0.010628	0.017757	0.002733	0.001398
2.8275	0.131211	0.043338	0.001983	0.024661	0.02736	0.203872	0.059526	0.007114	0.003346	0.012341	0.045148	0.001832	0.010666	0.017341	0.002772	0.001414
2.828	0.130961	0.043129	0.001941	0.024964	0.027421	0.204354	0.0588	0.007091	0.00336	0.01224	0.045165	0.001915	0.010703	0.016931	0.002812	0.00143
2.8285	0.130698	0.04291	0.001898	0.025266	0.02748	0.20479	0.058082	0.007071	0.003374	0.012139	0.045176	0.002002	0.010737	0.016526	0.002853	0.001447
2.829	0.13042	0.042682	0.001856	0.025569	0.027537	0.20518	0.057372	0.007053	0.003389	0.012037	0.045179	0.002092	0.01077	0.016127	0.002894	0.001465
2.8295	0.130128	0.042444	0.001813	0.02587	0.027592	0.205523	0.056671	0.007037	0.003404	0.011935	0.045176	0.002185	0.010802	0.015733	0.002937	0.001483
2.83	0.12982	0.042197	0.00177	0.026171	0.027646	0.205817	0.055977	0.007023	0.003419	0.011833	0.045165	0.002281	0.010832	0.015344	0.002981	0.001502
2.8305	0.129498	0.041941	0.001728	0.026472	0.027697	0.206063	0.055292	0.007012	0.003434	0.01173	0.045148	0.002381	0.01086	0.01496	0.003026	0.001522
2.831	0.129161	0.041676	0.001685	0.026771	0.027747	0.206259	0.054615	0.007003	0.00345	0.011628	0.045123	0.002485	0.010886	0.014582	0.003072	0.001543
2.8315	0.128808	0.041402	0.001642	0.02707	0.027794	0.206406	0.053947	0.006996	0.003465	0.011525	0.045091	0.002592	0.01091	0.01421	0.003119	0.001564
2.832	0.12844	0.041119	0.001599	0.027368	0.02784	0.206501	0.053287	0.006992	0.003481	0.011422	0.045051	0.002702	0.010933	0.013843	0.003167	0.001586
2.8325	0.128056	0.040828	0.001556	0.027666	0.027884	0.206544	0.052635	0.00699	0.003498	0.011319	0.045003	0.002816	0.010954	0.013481	0.003216	0.001609
2.833	0.127656	0.040528	0.001513	0.027963	0.027926	0.206535	0.051991	0.00699	0.003514	0.011216	0.044948	0.002934	0.010974	0.013125	0.003266	0.001633
2.8335	0.127242	0.04022	0.00147	0.028258	0.027967	0.206473	0.051356	0.006993	0.00353	0.011113	0.044884	0.003056	0.010992	0.012775	0.003318	0.001658
2.834	0.126812	0.039904	0.001427	0.028554	0.028006	0.206358	0.050729	0.006998	0.003547	0.01101	0.044811	0.003181	0.011008	0.01243	0.00337	0.001683
2.8345	0.126367	0.03958	0.001384	0.028848	0.028044	0.20619	0.050111	0.007005	0.003564	0.010907	0.044731	0.00331	0.011023	0.012091	0.003424	0.00171
2.835	0.125907	0.039248	0.001341	0.029141	0.028081	0.205968	0.0495	0.007015	0.003582	0.010804	0.044641	0.003444	0.011036	0.011757	0.003478	0.001737
2.8355	0.125433	0.038909	0.001297	0.029434	0.028116	0.205692	0.048898	0.007027	0.003599	0.010701	0.044542	0.003581	0.011047	0.011429	0.003534	0.001766
2.836	0.124944	0.038563	0.001254	0.029726	0.028151	0.205363	0.048304	0.007041	0.003617	0.010598	0.044435	0.003722	0.011057	0.011106	0.003591	0.001795
2.8365	0.124441	0.03821	0.001211	0.030016	0.028185	0.204981	0.047718	0.007057	0.003635	0.010495	0.044318	0.003867	0.011065	0.010789	0.00365	0.001826
2.837	0.123924	0.037851	0.001168	0.030307	0.028218	0.204546	0.047139	0.007076	0.003653	0.010393	0.044191	0.004017	0.011071	0.010478	0.003709	0.001857
2.8375	0.123394	0.037485	0.001125	0.030596	0.02825	0.204059	0.046569	0.007097	0.003672	0.010291	0.044055	0.00417	0.011076	0.010171	0.00377	0.00189
2.838	0.12285	0.037114	0.001082	0.030884	0.028282	0.20352	0.046006	0.007121	0.00369	0.01019	0.043909	0.004328	0.011079	0.009871	0.003831	0.001923
2.8385	0.122292	0.036737	0.001039	0.031172	0.028313	0.20293	0.045451	0.007146	0.003709	0.010089	0.043754	0.004491	0.01108	0.009576	0.003894	0.001958
2.839	0.121722	0.036355	0.000996	0.031459	0.028343	0.20229	0.044904	0.007174	0.003728	0.009988	0.04359	0.004657	0.01108	0.009286	0.003958	0.001994
2.8395	0.121138	0.035968	0.000953	0.031745	0.028374	0.2016	0.044365	0.007204	0.003748	0.009888	0.043415	0.004829	0.011079	0.009001	0.004024	0.002031
2.84	0.120541	0.035577	0.000911	0.03203	0.028404	0.200861	0.043833	0.007236	0.003768	0.009788	0.043232	0.005004	0.011075	0.008722	0.00409	0.002069
2.8405	0.119932	0.035182	0.000868	0.032315	0.028434	0.200076	0.043309	0.007271	0.003788	0.009689	0.043039	0.005185	0.011071	0.008449	0.004158	0.002108
2.841	0.119311	0.034783	0.000825	0.032599	0.028463	0.199244	0.042793	0.007308	0.003808	0.009591	0.042836	0.00537	0.011065	0.008181	0.004227	0.002149
2.8415	0.118677	0.03438	0.000783	0.032882	0.028493	0.198367	0.042285	0.007346	0.003828	0.009493	0.042625	0.00556	0.011057	0.007918	0.004297	0.00219
2.842	0.118032	0.033975	0.000741	0.033166	0.028523	0.197447	0.041784	0.007387	0.003849	0.009396	0.042404	0.005756	0.011048	0.00766	0.004368	0.002233
2.8425	0.117375	0.033566	0.000699	0.03345	0.028553	0.196484	0.041291	0.00743	0.00387	0.009299	0.042175	0.005956	0.011038	0.007407	0.004441	0.002277
2.843	0.116708	0.033154	0.000657	0.033733	0.028584	0.195481	0.040805	0.007475	0.003891	0.009204	0.041936	0.006161	0.011026	0.00716	0.004515	0.002323
2.8435	0.116029	0.032741	0.000615	0.034018	0.028615	0.194437	0.040327	0.007523	0.003913	0.009109	0.041689	0.006372	0.011013	0.006918	0.00459	0.002369
2.844	0.11534	0.032325	0.000574	0.034303	0.028647	0.193356	0.039857	0.007572	0.003935	0.009015	0.041433	0.006588	0.010999	0.00668	0.004666	0.002417
2.8445	0.114641	0.031907	0.000532	0.034589	0.02868	0.192239	0.039394	0.007623	0.003957	0.008921	0.041168	0.00681	0.010983	0.006448	0.004744	0.002467
2.845	0.113933	0.031487	0.000491	0.034876	0.028714	0.191087	0.038939	0.007676	0.003979	0.008829	0.040895	0.007037	0.010967	0.006221	0.004822	0.002517
2.8455	0.113216	0.031066	0.000451	0.035164	0.028748	0.189902	0.038491	0.007731	0.004002	0.008737	0.040613	0.00727	0.010949	0.005999	0.004902	0.002569
2.846	0.11249	0.030643	0.000411	0.035455	0.028784	0.188686	0.038051	0.007788	0.004025	0.008646	0.040324	0.007509	0.01093	0.005782	0.004983	0.002623
2.8465	0.111756	0.03022	0.000371	0.035747	0.028821	0.18744	0.037617	0.007847	0.004048	0.008556	0.040027	0.007754	0.01091	0.00557	0.005066	0.002678
2.847	0.111015	0.029796	0.000331	0.036043	0.02886	0.186165	0.037191	0.007907	0.004072	0.008467	0.039722	0.008005	0.010888	0.005363	0.005149	0.002734
2.8475	0.110266	0.029372	0.000292	0.036341	0.0289	0.184864	0.036772	0.00797	0.004096	0.008379	0.039411	0.008263	0.010866	0.00516	0.005234	0.002792
2.848	0.109511	0.028947	0.000254	0.036642	0.028942	0.183538	0.036361	0.008034	0.00412	0.008291	0.039092	0.008526	0.010843	0.004963	0.00532	0.002851
2.8485	0.108749	0.028523	0.000216	0.036947	0.028986	0.182188	0.035956	0.008099	0.004144	0.008205	0.038768	0.008796	0.010819	0.00477	0.005406	0.002911
2.849	0.107981	0.028098	0.000178	0.037256	0.029031	0.180815	0.035558	0.008167	0.004168	0.008119	0.038438	0.009073	0.010794	0.004581	0.005495	0.002973
2.8495	0.107208	0.027675	0.000142	0.037569	0.029079	0.179422	0.035168	0.008235	0.004193	0.008035	0.038103	0.009356	0.010768	0.004398	0.005584	0.003037
2.85	0.106429	0.027252	0.000106	0.037886	0.029128	0.178009	0.034785	0.008306	0.004218	0.007951	0.037764	0.009646	0.010741	0.004219	0.005674	0.003102
2.8505	0.105645	0.026831	7e-05	0.038209	0.02918	0.176578	0.034408	0.008378	0.004243	0.007868	0.037421	0.009943	0.010713	0.004044	0.005765	0.003168
2.851	0.104857	0.02641	3.6e-05	0.038536	0.029234	0.17513	0.034039	0.008451	0.004269	0.007786	0.037074	0.010247	0.010684	0.003874	0.005858	0.003236
2.8515	0.104064	0.025992	2e-06	0.038869	0.029291	0.173667	0.033677	0.008526	0.004295	0.007704	0.036725	0.010558	0.010654	0.003709	0.005951	0.003306
2.852	0.103267	0.025575	0	0.039208	0.02935	0.17219	0.033322	0.008603	0.004321	0.007624	0.036374	0.010876	0.010624	0.003548	0.006046	0.003377
2.8525	0.102466	0.025161	0	0.039553	0.029411	0.170701	0.032974	0.00868	0.004347	0.007545	0.036021	0.011202	0.010592	0.003391	0.006141	0.00345
2.853	0.101662	0.024749	0	0.039905	0.029475	0.169202	0.032633	0.008759	0.004373	0.007466	0.035667	0.011535	0.01056	0.003239	0.006238	0.003524
2.8535	0.100856	0.024339	0	0.040263	0.029542	0.167692	0.032299	0.00884	0.0044	0.007389	0.035313	0.011875	0.010527	0.003091	0.006335	0.0036
2.854	0.100046	0.023933	0	0.040628	0.029611	0.166175	0.031972	0.008921	0.004426	0.007312	0.034959	0.012223	0.010493	0.002947	0.006434	0.003677
2.8545	0.099235	0.023529	0	0.041	0.029684	0.164651	0.031652	0.009004	0.004453	0.007236	0.034606	0.012578	0.010458	0.002807	0.006533	0.003756
2.855	0.098423	0.023129	0	0.041379	0.029759	0.163121	0.03134	0.009088	0.00448	0.007161	0.034254	0.012942	0.010423	0.002671	0.006633	0.003837
2.8555	0.097609	0.022733	0	0.041766	0.029837	0.161587	0.031034	0.009172	0.004508	0.007088	0.033903	0.013313	0.010386	0.00254	0.006734	0.003919
2.856	0.096794	0.02234	0	0.042162	0.029919	0.160051	0.030736	0.009258	0.004535	0.007015	0.033555	0.013692	0.010349	0.002412	0.006836	0.004003
2.8565	0.09598	0.021952	0	0.042565	0.030003	0.158512	0.030444	0.009345	0.004563	0.006943	0.03321	0.014079	0.010311	0.002288	0.006939	0.004088
2.857	0.095166	0.021567	0	0.042977	0.030091	0.156973	0.030159	0.009433	0.00459	0.006872	0.032868	0.014474	0.010273	0.002168	0.007042	0.004175
2.8575	0.094352	0.021188	0	0.043397	0.030182	0.155434	0.029882	0.009522	0.004618	0.006803	0.03253	0.014877	0.010233	0.002052	0.007147	0.004264
2.858	0.09354	0.020812	0	0.043827	0.030277	0.153897	0.029611	0.009612	0.004646	0.006734	0.032196	0.015289	0.010193	0.00194	0.007252	0.004354
2.8585	0.092729	0.020442	0	0.044265	0.030374	0.152362	0.029347	0.009703	0.004675	0.006666	0.031867	0.015709	0.010152	0.001832	0.007358	0.004446
2.859	0.09192	0.020077	0	0.044713	0.030476	0.150831	0.02909	0.009794	0.004703	0.006599	0.031543	0.016137	0.010111	0.001727	0.007464	0.00454
2.8595	0.091113	0.019717	0	0.04517	0.030581	0.149304	0.02884	0.009887	0.004731	0.006534	0.031225	0.016573	0.010069	0.001626	0.007571	0.004635
2.86	0.090309	0.019362	0	0.045636	0.030689	0.147783	0.028597	0.009979	0.00476	0.006469	0.030913	0.017018	0.010026	0.001528	0.007679	0.004732
2.8605	0.089508	0.019013	0	0.046112	0.030801	0.146267	0.028361	0.010073	0.004789	0.006405	0.030609	0.017472	0.009983	0.001434	0.007788	0.004831
2.861	0.08871	0.01867	0	0.046598	0.030916	0.144759	0.028131	0.010167	0.004818	0.006343	0.030311	0.017934	0.009939	0.001344	0.007897	0.004931
2.8615	0.087915	0.018333	0	0.047094	0.031036	0.143258	0.027908	0.010262	0.004847	0.006281	0.030022	0.018404	0.009895	0.001257	0.008006	0.005033
2.862	0.087124	0.018002	0	0.0476	0.031159	0.141766	0.027691	0.010357	0.004876	0.006221	0.029741	0.018883	0.00985	0.001173	0.008116	0.005137
2.8625	0.086337	0.017678	0	0.048116	0.031285	0.140283	0.027481	0.010453	0.004905	0.006161	0.029468	0.019371	0.009805	0.001093	0.008227	0.005242
2.863	0.085555	0.017359	0	0.048642	0.031415	0.13881	0.027277	0.010549	0.004935	0.006103	0.029205	0.019867	0.00976	0.001017	0.008338	0.005348
2.8635	0.084777	0.017048	0	0.049179	0.031549	0.137348	0.02708	0.010645	0.004964	0.006046	0.028952	0.020373	0.009715	0.000943	0.008449	0.005457
2.864	0.084004	0.016743	0	0.049726	0.031687	0.135896	0.026889	0.010742	0.004994	0.00599	0.028709	0.020886	0.009669	0.000874	0.00856	0.005567
2.8645	0.083235	0.016445	0	0.050283	0.031828	0.134456	0.026705	0.010839	0.005024	0.005934	0.028477	0.021409	0.009623	0.000807	0.008672	0.005678
2.865	0.082472	0.016154	0	0.050851	0.031973	0.133029	0.026527	0.010936	0.005053	0.00588	0.028256	0.02194	0.009577	0.000744	0.008784	0.005791
2.8655	0.081714	0.015871	0	0.05143	0.032122	0.131614	0.026354	0.011033	0.005083	0.005827	0.028047	0.02248	0.00953	0.000684	0.008896	0.005906
2.866	0.080962	0.015595	0	0.052019	0.032274	0.130212	0.026188	0.011131	0.005113	0.005775	0.02785	0.023029	0.009484	0.000627	0.009008	0.006022
2.8665	0.080216	0.015327	0	0.052619	0.03243	0.128823	0.026027	0.011229	0.005143	0.005725	0.027666	0.023586	0.009438	0.000573	0.009121	0.00614
2.867	0.079475	0.015066	0	0.053229	0.032589	0.127449	0.025872	0.011327	0.005173	0.005675	0.027494	0.024153	0.009392	0.000523	0.009233	0.006259
2.8675	0.07874	0.014813	0	0.053851	0.032752	0.126089	0.025723	0.011424	0.005203	0.005626	0.027336	0.024728	0.009345	0.000476	0.009346	0.00638
2.868	0.078012	0.014569	0	0.054483	0.032918	0.124744	0.025579	0.011522	0.005233	0.005579	0.027193	0.025311	0.009299	0.000432	0.009458	0.006502
2.8685	0.077289	0.014332	0	0.055125	0.033088	0.123414	0.025441	0.01162	0.005264	0.005532	0.027063	0.025904	0.009253	0.000392	0.00957	0.006626
2.869	0.076573	0.014104	0	0.055779	0.033261	0.1221	0.025308	0.011718	0.005294	0.005487	0.026948	0.026505	0.009208	0.000354	0.009682	0.006751
2.8695	0.075864	0.013885	2.8e-05	0.056443	0.033438	0.120801	0.02518	0.011816	0.005324	0.005442	0.026849	0.027115	0.009162	0.00032	0.009794	0.006877
2.87	0.075161	0.013673	8.6e-05	0.057117	0.033618	0.119519	0.025056	0.011914	0.005354	0.005399	0.026765	0.027733	0.009117	0.000289	0.009905	0.007005
2.8705	0.074464	0.013471	0.000148	0.057802	0.0338	0.118253	0.024938	0.012011	0.005384	0.005357	0.026698	0.02836	0.009072	0.000261	0.010016	0.007134
2.871	0.073774	0.013278	0.000216	0.058498	0.033987	0.117004	0.024824	0.012109	0.005414	0.005316	0.026646	0.028995	0.009027	0.000236	0.010127	0.007264
2.8715	0.073091	0.013093	0.000288	0.059205	0.034176	0.115772	0.024715	0.012206	0.005444	0.005276	0.026612	0.029639	0.008983	0.000215	0.010238	0.007396
2.872	0.072414	0.012917	0.000365	0.059922	0.034368	0.114557	0.02461	0.012303	0.005474	0.005237	0.026595	0.030292	0.008939	0.000197	0.010348	0.007529
2.8725	0.071745	0.012751	0.000447	0.06065	0.034562	0.113359	0.024509	0.0124	0.005504	0.005199	0.026595	0.030952	0.008895	0.000182	0.010457	0.007663
2.873	0.071082	0.012594	0.000535	0.061389	0.03476	0.112179	0.024412	0.012496	0.005534	0.005162	0.026613	0.031621	0.008852	0.00017	0.010566	0.007798
2.8735	0.070425	0.012447	0.000628	0.062138	0.03496	0.111016	0.024319	0.012592	0.005564	0.005126	0.02665	0.032298	0.008809	0.000161	0.010675	0.007934
2.874	0.069776	0.012309	0.000726	0.062898	0.035162	0.109871	0.02423	0.012688	0.005593	0.005091	0.026705	0.032983	0.008767	0.000155	0.010783	0.008072
2.8745	0.069133	0.01218	0.00083	0.06367	0.035367	0.108743	0.024144	0.012783	0.005623	0.005057	0.02678	0.033676	0.008725	0.000153	0.01089	0.00821
2.875	0.068497	0.012062	0.000941	0.064451	0.035574	0.107633	0.024062	0.012878	0.005652	0.005024	0.026874	0.034378	0.008683	0.000154	0.010997	0.00835
2.8755	0.067868	0.011953	0.001057	0.065244	0.035783	0.106541	0.023983	0.012973	0.005681	0.004992	0.026988	0.035087	0.008643	0.000158	0.011103	0.00849
2.876	0.067245	0.011854	0.001179	0.066048	0.035994	0.105466	0.023907	0.013067	0.005711	0.004961	0.027121	0.035804	0.008602	0.000165	0.011208	0.008632
2.8765	0.066629	0.011766	0.001308	0.066862	0.036206	0.104409	0.023835	0.01316	0.00574	0.004931	0.027276	0.036529	0.008562	0.000176	0.011313	0.008774
2.877	0.06602	0.011687	0.001443	0.067688	0.03642	0.10337	0.023765	0.013253	0.005768	0.004902	0.027451	0.037262	0.008523	0.00019	0.011417	0.008917
2.8775	0.065417	0.01162	0.001584	0.068524	0.036636	0.102348	0.023698	0.013345	0.005797	0.004874	0.027647	0.038002	0.008484	0.000207	0.011521	0.009061
2.878	0.06482	0.011562	0.001733	0.069371	0.036853	0.101344	0.023633	0.013437	0.005825	0.004846	0.027865	0.038751	0.008446	0.000227	0.011624	0.009206
2.8785	0.06423	0.011515	0.001888	0.070229	0.037071	0.100358	0.023571	0.013528	0.005854	0.00482	0.028104	0.039507	0.008408	0.000251	0.011726	0.009351
2.879	0.063646	0.011479	0.002051	0.071098	0.03729	0.099389	0.023512	0.013618	0.005882	0.004794	0.028366	0.040271	0.008371	0.000278	0.011827	0.009497
2.8795	0.063069	0.011454	0.002221	0.071979	0.03751	0.098438	0.023455	0.013708	0.005909	0.004769	0.02865	0.041042	0.008334	0.000308	0.011928	0.009643
2.88	0.062499	0.011439	0.002398	0.07287	0.03773	0.097505	0.0234	0.013797	0.005937	0.004745	0.028957	0.041822	0.008298	0.000342	0.012028	0.00979
2.8805	0.061935	0.011436	0.002582	0.073773	0.037951	0.09659	0.023347	0.013885	0.005964	0.004722	0.029288	0.042609	0.008263	0.000379	0.012128	0.009938
2.881	0.061378	0.011443	0.002775	0.074688	0.038172	0.095693	0.023296	0.013972	0.005991	0.004699	0.029641	0.043403	0.008227	0.00042	0.012227	0.010085
2.8815	0.060827	0.011462	0.002975	0.075614	0.038393	0.094813	0.023247	0.014058	0.006017	0.004677	0.030018	0.044205	0.008193	0.000464	0.012325	0.010233
2.882	0.060283	0.011492	0.003183	0.076551	0.038614	0.093952	0.0232	0.014143	0.006043	0.004656	0.03042	0.045015	0.008158	0.000511	0.012422	0.010382
2.8825	0.059747	0.011534	0.0034	0.077501	0.038835	0.093108	0.023154	0.014228	0.006069	0.004636	0.030845	0.045832	0.008125	0.000562	0.012518	0.01053
2.883	0.059217	0.011587	0.003625	0.078463	0.039056	0.092283	0.02311	0.014311	0.006094	0.004616	0.031295	0.046657	0.008091	0.000617	0.012614	0.010679
2.8835	0.058695	0.011651	0.003859	0.079437	0.039276	0.091475	0.023067	0.014394	0.006119	0.004597	0.03177	0.047489	0.008058	0.000675	0.012709	0.010828
2.884	0.05818	0.011727	0.004101	0.080424	0.039495	0.090685	0.023026	0.014475	0.006144	0.004578	0.032271	0.048328	0.008026	0.000736	0.012803	0.010977
2.8845	0.057672	0.011815	0.004353	0.081423	0.039714	0.089913	0.022985	0.014556	0.006168	0.00456	0.032796	0.049174	0.007994	0.000802	0.012897	0.011126
2.885	0.057172	0.011914	0.004614	0.082435	0.039931	0.089158	0.022946	0.014636	0.006191	0.004543	0.033348	0.050028	0.007962	0.000871	0.012989	0.011275
2.8855	0.056679	0.012026	0.004884	0.083459	0.040148	0.088421	0.022907	0.014716	0.006215	0.004527	0.033925	0.050888	0.007931	0.000943	0.013081	0.011424
2.886	0.056194	0.012149	0.005164	0.084496	0.040363	0.087702	0.02287	0.014795	0.006237	0.004511	0.034528	0.051756	0.0079	0.00102	0.013172	0.011572
2.8865	0.055717	0.012285	0.005454	0.085547	0.040578	0.087001	0.022832	0.014873	0.006259	0.004495	0.035158	0.052631	0.007869	0.0011	0.013262	0.011721
2.887	0.055247	0.012432	0.005754	0.08661	0.04079	0.086318	0.022796	0.014951	0.006281	0.00448	0.035814	0.053514	0.007838	0.001185	0.013352	0.011869
2.8875	0.054786	0.012592	0.006065	0.087687	0.041001	0.085653	0.02276	0.015029	0.006302	0.004466	0.036497	0.054404	0.007808	0.001273	0.013441	0.012017
2.888	0.054332	0.012764	0.006386	0.088777	0.041211	0.085007	0.022724	0.015106	0.006323	0.004452	0.037208	0.055301	0.007779	0.001365	0.013528	0.012165
2.8885	0.053887	0.012948	0.006718	0.089882	0.041418	0.08438	0.022689	0.015184	0.006343	0.004439	0.037945	0.056205	0.007749	0.001461	0.013616	0.012312
2.889	0.05345	0.013144	0.007061	0.091	0.041623	0.083771	0.022655	0.015261	0.006363	0.004427	0.03871	0.057118	0.00772	0.001562	0.013702	0.012459
2.8895	0.053023	0.013354	0.007416	0.092133	0.041826	0.083182	0.02262	0.015339	0.006383	0.004415	0.039503	0.058038	0.00769	0.001666	0.013787	0.012605
2.89	0.052604	0.013575	0.007783	0.093281	0.042027	0.082613	0.022587	0.015417	0.006402	0.004403	0.040324	0.058966	0.007662	0.001775	0.013872	0.012751
2.8905	0.052195	0.01381	0.008161	0.094443	0.042226	0.082064	0.022553	0.015496	0.00642	0.004393	0.041173	0.059902	0.007633	0.001889	0.013956	0.012896
2.891	0.051795	0.014057	0.008552	0.095621	0.042421	0.081534	0.02252	0.015576	0.006438	0.004382	0.04205	0.060846	0.007604	0.002006	0.014038	0.01304
2.8915	0.051405	0.014317	0.008956	0.096815	0.042614	0.081024	0.022487	0.015656	0.006456	0.004372	0.042956	0.061799	0.007576	0.002129	0.01412	0.013184
2.892	0.051026	0.014589	0.009373	0.098024	0.042804	0.080535	0.022455	0.015738	0.006473	0.004363	0.043891	0.06276	0.007548	0.002255	0.014201	0.013326
2.8925	0.050657	0.014875	0.009802	0.09925	0.042991	0.080066	0.022423	0.015822	0.006489	0.004354	0.044854	0.06373	0.00752	0.002387	0.014281	0.013468
2.893	0.050298	0.015174	0.010245	0.100492	0.043174	0.079618	0.022391	0.015907	0.006506	0.004346	0.045847	0.064709	0.007492	0.002524	0.01436	0.01361
2.8935	0.049951	0.015485	0.010702	0.101751	0.043354	0.07919	0.02236	0.015994	0.006521	0.004338	0.046869	0.065697	0.007464	0.002665	0.014437	0.01375
2.894	0.049615	0.01581	0.011173	0.103027	0.043531	0.078783	0.022329	0.016083	0.006537	0.004331	0.047921	0.066694	0.007436	0.002811	0.014514	0.013889
2.8945	0.049291	0.016148	0.011657	0.104321	0.043704	0.078397	0.022298	0.016174	0.006552	0.004324	0.049002	0.067701	0.007408	0.002963	0.014589	0.014027
2.895	0.048979	0.0165	0.012157	0.105631	0.043873	0.078033	0.022268	0.016267	0.006566	0.004317	0.050113	0.068717	0.007381	0.00312	0.014664	0.014165
2.8955	0.048679	0.016864	0.012671	0.10696	0.044039	0.077689	0.022237	0.016363	0.00658	0.004311	0.051253	0.069744	0.007353	0.003282	0.014737	0.014301
2.896	0.04839	0.017242	0.0132	0.108306	0.0442	0.077368	0.022207	0.016462	0.006593	0.004306	0.052424	0.070779	0.007326	0.003449	0.014809	0.014436
2.8965	0.048115	0.017634	0.013744	0.10967	0.044358	0.077067	0.022177	0.016564	0.006606	0.0043	0.053625	0.071825	0.007298	0.003622	0.014879	0.01457
2.897	0.047852	0.018038	0.014304	0.111052	0.044512	0.076789	0.022147	0.016668	0.006619	0.004295	0.054856	0.072881	0.007271	0.003801	0.014948	0.014703
2.8975	0.047602	0.018457	0.014879	0.112452	0.044661	0.076532	0.022118	0.016776	0.006631	0.004291	0.056118	0.073947	0.007244	0.003986	0.015016	0.014834
2.898	0.047365	0.018889	0.015471	0.113869	0.044807	0.076297	0.022088	0.016887	0.006642	0.004287	0.057409	0.075022	0.007217	0.004176	0.015082	0.014964
2.8985	0.047141	0.019334	0.016079	0.115305	0.044948	0.076083	0.022058	0.017002	0.006653	0.004283	0.058732	0.076108	0.00719	0.004372	0.015147	0.015093
2.899	0.04693	0.019793	0.016703	0.116759	0.045085	0.075892	0.022029	0.017121	0.006663	0.00428	0.060084	0.077204	0.007162	0.004575	0.01521	0.01522
2.8995	0.046733	0.020266	0.017344	0.118231	0.045218	0.075723	0.021999	0.017243	0.006673	0.004277	0.061468	0.078309	0.007135	0.004784	0.015272	0.015346
2.9	0.04655	0.020753	0.018002	0.11972	0.045347	0.075576	0.02197	0.017369	0.006682	0.004274	0.062881	0.079425	0.007108	0.004998	0.015332	0.01547
2.9005	0.046381	0.021253	0.018677	0.121228	0.045472	0.07545	0.02194	0.0175	0.00669	0.004272	0.064326	0.080551	0.007081	0.00522	0.015391	0.015592
2.901	0.046226	0.021768	0.01937	0.122753	0.045593	0.075347	0.021911	0.017635	0.006698	0.00427	0.065801	0.081686	0.007053	0.005448	0.015447	0.015713
2.9015	0.046085	0.022296	0.02008	0.124297	0.045709	0.075265	0.021881	0.017774	0.006706	0.004269	0.067307	0.082831	0.007026	0.005682	0.015502	0.015832
2.902	0.045959	0.022838	0.020808	0.125858	0.045822	0.075206	0.021852	0.017918	0.006713	0.004268	0.068844	0.083986	0.006999	0.005924	0.015555	0.015949
2.9025	0.045847	0.023394	0.021555	0.127437	0.04593	0.075168	0.021822	0.018067	0.006719	0.004267	0.070411	0.08515	0.006971	0.006172	0.015605	0.016064
2.903	0.045751	0.023964	0.02232	0.129034	0.046033	0.075152	0.021792	0.018221	0.006725	0.004267	0.072009	0.086324	0.006943	0.006428	0.015654	0.016177
2.9035	0.045669	0.024548	0.023104	0.130649	0.046133	0.075157	0.021763	0.018381	0.00673	0.004267	0.073638	0.087507	0.006915	0.00669	0.0157	0.016288
2.904	0.045603	0.025146	0.023907	0.132283	0.046228	0.075184	0.021733	0.018546	0.006735	0.004267	0.075297	0.088699	0.006887	0.00696	0.015745	0.016397
2.9045	0.045552	0.025759	0.024729	0.133935	0.046318	0.075232	0.021704	0.018716	0.00674	0.004268	0.076987	0.089901	0.006859	0.007237	0.015787	0.016504
2.905	0.045517	0.026385	0.02557	0.135605	0.046405	0.075302	0.021674	0.018892	0.006743	0.004269	0.078707	0.091112	0.006831	0.007522	0.015827	0.016609
2.9055	0.045498	0.027025	0.026432	0.137293	0.046487	0.075392	0.021645	0.019075	0.006747	0.004271	0.080458	0.092332	0.006802	0.007815	0.015865	0.016712
2.906	0.045495	0.02768	0.027313	0.139001	0.046565	0.075502	0.021615	0.019263	0.00675	0.004273	0.082239	0.093561	0.006773	0.008116	0.0159	0.016813
2.9065	0.045507	0.028348	0.028215	0.140727	0.046639	0.075634	0.021586	0.019458	0.006752	0.004275	0.08405	0.094801	0.006744	0.008425	0.015933	0.016913
2.907	0.045537	0.029031	0.029137	0.142472	0.046709	0.075785	0.021557	0.01966	0.006754	0.004278	0.085891	0.09605	0.006714	0.008741	0.015964	0.01701
2.9075	0.045583	0.029727	0.03008	0.144237	0.046775	0.075957	0.021527	0.019868	0.006755	0.004281	0.087762	0.09731	0.006685	0.009067	0.015992	0.017105
2.908	0.045646	0.030437	0.031044	0.14602	0.046837	0.076148	0.021498	0.020083	0.006755	0.004284	0.089663	0.098581	0.006655	0.009401	0.016018	0.017198
2.9085	0.045725	0.031162	0.032029	0.147824	0.046896	0.076358	0.021469	0.020306	0.006755	0.004288	0.091593	0.099862	0.006625	0.009743	0.016041	0.017289
2.909	0.045822	0.0319	0.033036	0.149647	0.046951	0.076588	0.02144	0.020536	0.006755	0.004292	0.093552	0.101155	0.006594	0.010094	0.016062	0.017378
2.9095	0.045936	0.032652	0.034065	0.151489	0.047003	0.076837	0.02141	0.020773	0.006754	0.004296	0.095541	0.102459	0.006564	0.010455	0.016079	0.017466
2.91	0.046067	0.033418	0.035117	0.153352	0.047052	0.077103	0.021381	0.021018	0.006752	0.004301	0.097559	0.103775	0.006533	0.010824	0.016095	0.017551
2.9105	0.046216	0.034197	0.03619	0.155234	0.047097	0.077388	0.021352	0.021271	0.00675	0.004306	0.099605	0.105105	0.006501	0.011203	0.016107	0.017634
2.911	0.046382	0.03499	0.037286	0.157136	0.04714	0.077691	0.021322	0.021532	0.006747	0.004311	0.101681	0.106447	0.00647	0.011591	0.016117	0.017715
2.9115	0.046566	0.035797	0.038405	0.159058	0.04718	0.078011	0.021292	0.021801	0.006744	0.004317	0.103784	0.107804	0.006438	0.011989	0.016124	0.017795
2.912	0.046769	0.036617	0.039548	0.160999	0.047218	0.078348	0.021263	0.022079	0.00674	0.004323	0.105916	0.109175	0.006406	0.012397	0.016129	0.017872
2.9125	0.046989	0.037451	0.040713	0.16296	0.047253	0.078701	0.021233	0.022365	0.006735	0.004329	0.108076	0.110562	0.006374	0.012815	0.01613	0.017948
2.913	0.047228	0.038298	0.041902	0.16494	0.047286	0.079071	0.021203	0.02266	0.00673	0.004335	0.110263	0.111964	0.006341	0.013244	0.016129	0.018022
2.9135	0.047485	0.039159	0.043115	0.16694	0.047317	0.079457	0.021172	0.022964	0.006724	0.004342	0.112479	0.113383	0.006308	0.013682	0.016124	0.018094
2.914	0.047761	0.040033	0.044352	0.168959	0.047346	0.079858	0.021142	0.023276	0.006717	0.00435	0.114721	0.114819	0.006275	0.014132	0.016117	0.018164
2.9145	0.048057	0.04092	0.045613	0.170997	0.047373	0.080274	0.021111	0.023598	0.00671	0.004357	0.11699	0.116272	0.006242	0.014592	0.016107	0.018233
2.915	0.048371	0.04182	0.046899	0.173053	0.047398	0.080706	0.021081	0.023929	0.006702	0.004365	0.119286	0.117743	0.006209	0.015063	0.016094	0.0183
2.9155	0.048704	0.042734	0.048209	0.175128	0.047421	0.081151	0.02105	0.02427	0.006693	0.004373	0.121609	0.119233	0.006175	0.015545	0.016078	0.018365
2.916	0.049057	0.043661	0.049544	0.177222	0.047443	0.08161	0.021018	0.024619	0.006685	0.004381	0.123956	0.120741	0.006141	0.016039	0.016059	0.018429
2.9165	0.04943	0.0446	0.050903	0.179334	0.047463	0.082083	0.020987	0.024979	0.006675	0.00439	0.12633	0.122269	0.006108	0.016544	0.016038	0.018492
2.917	0.049823	0.045553	0.052288	0.181463	0.047482	0.082568	0.020955	0.025349	0.006665	0.004399	0.128728	0.123816	0.006074	0.017061	0.016013	0.018553
2.9175	0.050236	0.046518	0.053698	0.18361	0.047499	0.083066	0.020923	0.025728	0.006654	0.004408	0.131151	0.125384	0.00604	0.017589	0.015986	0.018613
2.918	0.050669	0.047496	0.055134	0.185775	0.047516	0.083575	0.02089	0.026118	0.006643	0.004418	0.133598	0.126971	0.006007	0.01813	0.015957	0.018671
2.9185	0.051122	0.048486	0.056595	0.187956	0.047531	0.084096	0.020858	0.026518	0.006632	0.004428	0.136068	0.12858	0.005973	0.018683	0.015925	0.018728
2.919	0.051596	0.049489	0.058082	0.190154	0.047546	0.084628	0.020824	0.026928	0.00662	0.004438	0.13856	0.130209	0.00594	0.019248	0.01589	0.018785
2.9195	0.05209	0.050503	0.059594	0.192368	0.047561	0.08517	0.020791	0.027349	0.006607	0.004448	0.141075	0.13186	0.005907	0.019826	0.015854	0.01884
2.92	0.052606	0.05153	0.061132	0.194597	0.047575	0.085722	0.020757	0.02778	0.006594	0.004458	0.143611	0.133532	0.005874	0.020417	0.015815	0.018894
2.9205	0.053141	0.052569	0.062696	0.196842	0.047589	0.086282	0.020723	0.028222	0.006581	0.004469	0.146168	0.135226	0.005841	0.021021	0.015775	0.018947
2.921	0.053698	0.05362	0.064287	0.1991	0.047603	0.086852	0.020688	0.028675	0.006567	0.00448	0.148745	0.136941	0.005809	0.021638	0.015733	0.018999
2.9215	0.054276	0.054682	0.065903	0.201373	0.047618	0.087429	0.020652	0.029139	0.006553	0.004492	0.151341	0.138678	0.005776	0.022269	0.015689	0.019051
2.922	0.054875	0.055755	0.067545	0.203658	0.047633	0.088013	0.020617	0.029615	0.006538	0.004503	0.153955	0.140437	0.005745	0.022913	0.015644	0.019101
2.9225	0.055496	0.05684	0.069214	0.205955	0.047649	0.088604	0.02058	0.030101	0.006523	0.004515	0.156586	0.142218	0.005714	0.023571	0.015598	0.019151
2.923	0.056137	0.057937	0.070908	0.208264	0.047666	0.0892	0.020543	0.030599	0.006508	0.004527	0.159234	0.144021	0.005683	0.024243	0.015551	0.0192
2.9235	0.0568	0.059044	0.072629	0.210583	0.047684	0.089802	0.020505	0.031109	0.006493	0.004539	0.161898	0.145846	0.005653	0.02493	0.015502	0.019249
2.924	0.057485	0.060162	0.074376	0.212912	0.047704	0.090408	0.020467	0.03163	0.006477	0.004551	0.164576	0.147692	0.005623	0.025631	0.015453	0.019297
2.9245	0.058191	0.061291	0.076149	0.215249	0.047724	0.091019	0.020428	0.032164	0.00646	0.004564	0.167269	0.149561	0.005595	0.026346	0.015403	0.019345
2.925	0.058919	0.06243	0.077949	0.217595	0.047747	0.091632	0.020388	0.032709	0.006444	0.004577	0.169974	0.151451	0.005566	0.027076	0.015353	0.019392
2.9255	0.059669	0.06358	0.079774	0.219948	0.04777	0.092248	0.020347	0.033266	0.006427	0.004589	0.172691	0.153362	0.005539	0.027822	0.015303	0.019439
2.926	0.060441	0.06474	0.081626	0.222308	0.047796	0.092866	0.020306	0.033835	0.006409	0.004602	0.17542	0.155295	0.005512	0.028582	0.015252	0.019486
2.9265	0.061234	0.06591	0.083503	0.224674	0.047824	0.093485	0.020264	0.034416	0.006392	0.004615	0.178159	0.157248	0.005486	0.029358	0.015202	0.019533
2.927	0.06205	0.06709	0.085407	0.227044	0.047854	0.094105	0.02022	0.03501	0.006374	0.004628	0.180908	0.159223	0.005461	0.03015	0.015152	0.019579
2.9275	0.062887	0.068279	0.087336	0.229419	0.047886	0.094724	0.020177	0.035616	0.006356	0.004642	0.183665	0.161217	0.005437	0.030957	0.015102	0.019627
2.928	0.063747	0.069478	0.089292	0.231798	0.047921	0.095342	0.020132	0.036235	0.006337	0.004655	0.18643	0.163232	0.005414	0.031781	0.015053	0.019674
2.9285	0.064628	0.070686	0.091273	0.23418	0.047958	0.095958	0.020086	0.036867	0.006318	0.004668	0.189202	0.165267	0.005392	0.032621	0.015004	0.019722
2.929	0.065532	0.071902	0.093281	0.236565	0.047997	0.096572	0.02004	0.037511	0.006299	0.004682	0.19198	0.167321	0.00537	0.033478	0.014957	0.01977
2.9295	0.066458	0.073128	0.095314	0.238952	0.04804	0.097184	0.019993	0.038169	0.006279	0.004695	0.194763	0.169395	0.00535	0.034351	0.014911	0.01982
2.93	0.067406	0.074361	0.097374	0.241342	0.048085	0.097792	0.019945	0.038839	0.006259	0.004709	0.197551	0.171488	0.005331	0.035242	0.014866	0.01987
2.9305	0.068376	0.075603	0.099459	0.243733	0.048133	0.098396	0.019896	0.039523	0.006239	0.004722	0.200343	0.1736	0.005313	0.03615	0.014822	0.019921
2.931	0.069369	0.076853	0.10157	0.246127	0.048184	0.098995	0.019847	0.04022	0.006219	0.004736	0.203139	0.175731	0.005296	0.037075	0.01478	0.019973
2.9315	0.070383	0.07811	0.103707	0.248523	0.048238	0.099589	0.019797	0.04093	0.006198	0.004749	0.205938	0.17788	0.00528	0.038019	0.01474	0.020026
2.932	0.07142	0.079374	0.105869	0.25092	0.048296	0.100178	0.019746	0.041654	0.006177	0.004762	0.20874	0.180048	0.005266	0.038981	0.014701	0.020081
2.9325	0.072479	0.080646	0.108057	0.253318	0.048357	0.10076	0.019694	0.042392	0.006156	0.004776	0.211545	0.182233	0.005253	0.039961	0.014665	0.020137
2.933	0.07356	0.081924	0.11027	0.255718	0.048421	0.101336	0.019642	0.043144	0.006135	0.004789	0.214353	0.184436	0.005241	0.04096	0.014631	0.020194
2.9335	0.074664	0.083209	0.112508	0.258119	0.048489	0.101904	0.019589	0.04391	0.006113	0.004802	0.217162	0.186656	0.005231	0.041978	0.0146	0.020254
2.934	0.07579	0.084499	0.114771	0.260521	0.048561	0.102465	0.019535	0.04469	0.006091	0.004815	0.219974	0.188893	0.005222	0.043016	0.014571	0.020314
2.9345	0.076939	0.085796	0.117059	0.262924	0.048637	0.103018	0.01948	0.045484	0.006069	0.004828	0.222787	0.191147	0.005214	0.044074	0.014544	0.020377
2.935	0.078109	0.087098	0.119371	0.265328	0.048717	0.103562	0.019425	0.046293	0.006046	0.004841	0.225602	0.193418	0.005208	0.045152	0.014521	0.020442
2.9355	0.079303	0.088406	0.121708	0.267734	0.048802	0.104098	0.019369	0.047117	0.006024	0.004853	0.228419	0.195706	0.005204	0.04625	0.014501	0.020509
2.936	0.080518	0.089718	0.124068	0.270141	0.048891	0.104626	0.019312	0.047955	0.006001	0.004866	0.231237	0.19801	0.005201	0.047369	0.014483	0.020578
2.9365	0.081756	0.091036	0.126453	0.272549	0.048984	0.105145	0.019254	0.048808	0.005979	0.004878	0.234057	0.200331	0.0052	0.048509	0.01447	0.020649
2.937	0.083016	0.092359	0.12886	0.274958	0.049083	0.105657	0.019196	0.049676	0.005956	0.00489	0.236878	0.202669	0.0052	0.04967	0.014459	0.020723
2.9375	0.084298	0.093686	0.131291	0.277369	0.049186	0.106159	0.019137	0.050559	0.005934	0.004903	0.239701	0.205022	0.005203	0.050853	0.014452	0.0208
2.938	0.085603	0.095018	0.133745	0.279781	0.049294	0.106654	0.019077	0.051457	0.005911	0.004914	0.242525	0.207391	0.005207	0.052059	0.014449	0.02088
2.9385	0.086929	0.096354	0.136221	0.282195	0.049408	0.10714	0.019017	0.05237	0.005888	0.004926	0.245352	0.209777	0.005212	0.053286	0.01445	0.020963
2.939	0.088278	0.097694	0.138719	0.28461	0.049526	0.107618	0.018956	0.053299	0.005866	0.004938	0.24818	0.212177	0.00522	0.054536	0.014456	0.021049
2.9395	0.089648	0.099039	0.141238	0.287027	0.04965	0.108088	0.018894	0.054243	0.005843	0.004949	0.25101	0.214594	0.005229	0.055809	0.014465	0.021138
2.94	0.091041	0.100387	0.143778	0.289446	0.049779	0.10855	0.018832	0.055203	0.005821	0.00496	0.253843	0.217025	0.005241	0.057105	0.014479	0.021231
2.9405	0.092455	0.101739	0.146338	0.291865	0.049914	0.109003	0.01877	0.056178	0.005799	0.004971	0.256678	0.219471	0.005254	0.058425	0.014498	0.021328
2.941	0.09389	0.103095	0.148919	0.294287	0.050054	0.10945	0.018706	0.057169	0.005777	0.004982	0.259515	0.221933	0.005269	0.059768	0.014521	0.021428
2.9415	0.095347	0.104456	0.151518	0.296709	0.050199	0.109889	0.018643	0.058176	0.005755	0.004993	0.262354	0.224408	0.005286	0.061135	0.014549	0.021532
2.942	0.096824	0.10582	0.154137	0.299133	0.05035	0.110321	0.018579	0.059198	0.005733	0.005003	0.265196	0.226898	0.005306	0.062527	0.014582	0.02164
2.9425	0.098323	0.107189	0.156773	0.301558	0.050506	0.110746	0.018515	0.060236	0.005712	0.005013	0.268041	0.229402	0.005327	0.063942	0.014621	0.021753
2.943	0.099842	0.108562	0.159427	0.303983	0.050668	0.111165	0.018451	0.06129	0.00569	0.005023	0.270888	0.231919	0.005351	0.065383	0.014664	0.021869
2.9435	0.101382	0.109939	0.162098	0.306409	0.050835	0.111578	0.018386	0.06236	0.00567	0.005033	0.273738	0.234449	0.005376	0.066848	0.014714	0.021991
2.944	0.102942	0.111322	0.164785	0.308834	0.051007	0.111987	0.018322	0.063445	0.005649	0.005043	0.276592	0.236992	0.005405	0.068339	0.014769	0.022116
2.9445	0.104522	0.112709	0.167487	0.31126	0.051186	0.11239	0.018257	0.064547	0.005629	0.005052	0.279448	0.239548	0.005435	0.069855	0.01483	0.022247
2.945	0.106122	0.114102	0.170203	0.313684	0.051369	0.112789	0.018192	0.065664	0.005609	0.005062	0.282307	0.242115	0.005468	0.071396	0.014897	0.022382
2.9455	0.107742	0.115499	0.172934	0.316107	0.051558	0.113185	0.018128	0.066797	0.005589	0.005071	0.28517	0.244692	0.005503	0.072963	0.01497	0.022522
2.946	0.109381	0.116902	0.175677	0.318529	0.051752	0.113578	0.018063	0.067946	0.00557	0.00508	0.288035	0.247281	0.005541	0.074556	0.015049	0.022667
2.9465	0.111039	0.11831	0.178432	0.32095	0.051952	0.113969	0.017999	0.069111	0.005552	0.005088	0.290903	0.249879	0.005581	0.076175	0.015135	0.022817
2.947	0.112716	0.119723	0.181198	0.323368	0.052156	0.114358	0.017935	0.070291	0.005533	0.005097	0.293774	0.252487	0.005625	0.07782	0.015228	0.022972
2.9475	0.114412	0.121141	0.183974	0.325784	0.052366	0.114747	0.017871	0.071486	0.005515	0.005106	0.296648	0.255102	0.00567	0.079491	0.015327	0.023133
2.948	0.116126	0.122565	0.186759	0.328197	0.052582	0.115135	0.017807	0.072697	0.005498	0.005114	0.299524	0.257726	0.005719	0.081189	0.015433	0.023299
2.9485	0.117859	0.123995	0.189552	0.330606	0.052802	0.115525	0.017744	0.073924	0.005481	0.005122	0.302402	0.260356	0.00577	0.082912	0.015547	0.02347
2.949	0.119609	0.125429	0.192352	0.333012	0.053028	0.115916	0.017681	0.075165	0.005464	0.00513	0.305282	0.262992	0.005825	0.084663	0.015667	0.023647
2.9495	0.121378	0.126869	0.195157	0.335414	0.053259	0.11631	0.017618	0.076422	0.005448	0.005138	0.308164	0.265633	0.005882	0.08644	0.015795	0.02383
2.95	0.123164	0.128314	0.197966	0.33781	0.053495	0.116708	0.017556	0.077693	0.005433	0.005145	0.311047	0.268278	0.005942	0.088243	0.01593	0.024018
2.9505	0.124969	0.129764	0.200779	0.340201	0.053736	0.11711	0.017495	0.078979	0.005418	0.005153	0.313931	0.270925	0.006006	0.090072	0.016073	0.024211
2.951	0.126791	0.13122	0.203594	0.342585	0.053982	0.117518	0.017433	0.080279	0.005403	0.00516	0.316816	0.273575	0.006072	0.091928	0.016223	0.024411
2.9515	0.12863	0.13268	0.206409	0.344964	0.054233	0.117931	0.017373	0.081593	0.005389	0.005168	0.319701	0.276225	0.006142	0.09381	0.016382	0.024616
2.952	0.130487	0.134145	0.209224	0.347335	0.05449	0.118352	0.017313	0.082921	0.005376	0.005175	0.322586	0.278874	0.006215	0.095719	0.016548	0.024827
2.9525	0.13236	0.135615	0.212038	0.3497	0.054751	0.118779	0.017254	0.084262	0.005363	0.005182	0.325471	0.281522	0.006292	0.097653	0.016722	0.025043
2.953	0.134251	0.137089	0.214849	0.352058	0.055017	0.119215	0.017195	0.085617	0.005351	0.005189	0.328354	0.284166	0.006372	0.099614	0.016904	0.025266
2.9535	0.136158	0.138569	0.217656	0.354411	0.055288	0.11966	0.017137	0.086984	0.005339	0.005196	0.331236	0.286805	0.006456	0.1016	0.017095	0.025495
2.954	0.138082	0.140052	0.220458	0.356757	0.055564	0.120115	0.017081	0.088364	0.005328	0.005202	0.334116	0.289438	0.006544	0.103612	0.017294	0.025729
2.9545	0.140022	0.14154	0.223254	0.359098	0.055845	0.12058	0.017025	0.089757	0.005318	0.005209	0.336993	0.292063	0.006635	0.105649	0.017501	0.02597
2.955	0.141977	0.143032	0.226044	0.361435	0.056131	0.121056	0.016969	0.091161	0.005308	0.005215	0.339867	0.294678	0.00673	0.107712	0.017717	0.026217
2.9555	0.143948	0.144527	0.228824	0.363767	0.056422	0.121543	0.016915	0.092577	0.005299	0.005221	0.342736	0.297281	0.006829	0.1098	0.017942	0.02647
2.956	0.145933	0.146026	0.231596	0.366096	0.056717	0.122043	0.016862	0.094004	0.005291	0.005228	0.3456	0.299871	0.006932	0.111912	0.018176	0.026729
2.9565	0.147933	0.147528	0.234356	0.368423	0.057018	0.122555	0.01681	0.095441	0.005283	0.005234	0.348459	0.302445	0.00704	0.114049	0.018418	0.026995
2.957	0.149947	0.149034	0.237104	0.370748	0.057323	0.123081	0.016759	0.096889	0.005276	0.00524	0.35131	0.305002	0.007151	0.116211	0.018669	0.027266
2.9575	0.151973	0.150541	0.239838	0.373073	0.057633	0.123621	0.016709	0.098346	0.005269	0.005245	0.354155	0.307539	0.007267	0.118397	0.01893	0.027545
2.958	0.154013	0.152051	0.242558	0.375399	0.057949	0.124175	0.016661	0.099813	0.005263	0.005251	0.356991	0.310054	0.007387	0.120606	0.0192	0.02783
2.9585	0.156066	0.153563	0.245262	0.377725	0.05827	0.124745	0.016613	0.101288	0.005258	0.005257	0.359818	0.312546	0.007512	0.122839	0.019479	0.028122
2.959	0.15813	0.155076	0.247949	0.380054	0.058596	0.125331	0.016567	0.102772	0.005254	0.005262	0.362634	0.315011	0.007641	0.125095	0.019767	0.028421
2.9595	0.160206	0.15659	0.250619	0.382384	0.058927	0.125933	0.016523	0.104264	0.00525	0.005268	0.36544	0.317448	0.007775	0.127374	0.020064	0.028727
2.96	0.162293	0.158104	0.253269	0.384718	0.059263	0.126553	0.016479	0.105763	0.005247	0.005273	0.368233	0.319853	0.007913	0.129675	0.020371	0.029041
2.9605	0.164392	0.159618	0.255899	0.387055	0.059606	0.127191	0.016438	0.10727	0.005245	0.005278	0.371012	0.322225	0.008057	0.131999	0.020688	0.029362
2.961	0.166501	0.161131	0.258509	0.389395	0.059953	0.127846	0.016398	0.108783	0.005243	0.005283	0.373775	0.324562	0.008205	0.134345	0.021014	0.029692
2.9615	0.16862	0.162644	0.261097	0.391739	0.060306	0.128521	0.016359	0.110303	0.005242	0.005288	0.376522	0.326861	0.008358	0.136712	0.02135	0.03003
2.962	0.17075	0.164154	0.263662	0.394088	0.060665	0.129215	0.016322	0.111828	0.005241	0.005293	0.379251	0.329119	0.008517	0.139101	0.021695	0.030377
2.9625	0.172889	0.165663	0.266203	0.39644	0.061029	0.12993	0.016287	0.113359	0.005242	0.005298	0.38196	0.331335	0.008681	0.14151	0.02205	0.030732
2.963	0.175038	0.16717	0.26872	0.398797	0.0614	0.130664	0.016254	0.114894	0.005243	0.005303	0.384647	0.333507	0.008849	0.14394	0.022416	0.031097
2.9635	0.177196	0.168674	0.271211	0.401159	0.061776	0.13142	0.016223	0.116434	0.005245	0.005307	0.38731	0.335631	0.009024	0.14639	0.022791	0.031471
2.964	0.179363	0.170174	0.273676	0.403525	0.062159	0.132198	0.016193	0.117978	0.005247	0.005312	0.389948	0.337707	0.009204	0.14886	0.023176	0.031855
2.9645	0.181537	0.171671	0.276112	0.405898	0.062548	0.132997	0.016166	0.119526	0.00525	0.005316	0.392559	0.339732	0.009389	0.151349	0.02357	0.032249
2.965	0.183719	0.173164	0.27852	0.408275	0.062943	0.133819	0.01614	0.121077	0.005254	0.005321	0.39514	0.341704	0.00958	0.153856	0.023975	0.032654
2.9655	0.185909	0.174651	0.280897	0.410658	0.063345	0.134665	0.016117	0.122632	0.005259	0.005325	0.397689	0.343621	0.009777	0.156383	0.02439	0.033069
2.966	0.188105	0.176133	0.283244	0.413048	0.063753	0.135534	0.016096	0.124189	0.005265	0.005329	0.400206	0.345481	0.00998	0.158927	0.024815	0.033496
2.9665	0.190308	0.177609	0.285559	0.415443	0.064169	0.136427	0.016077	0.125748	0.005271	0.005333	0.402686	0.347282	0.010189	0.161489	0.025251	0.033934
2.967	0.192517	0.179077	0.287842	0.417845	0.064591	0.137344	0.016061	0.127309	0.005278	0.005337	0.405128	0.349023	0.010404	0.164068	0.025696	0.034384
2.9675	0.194731	0.180538	0.290092	0.420252	0.065021	0.138286	0.016047	0.128872	0.005286	0.00534	0.40753	0.350703	0.010625	0.166663	0.026151	0.034847
2.968	0.196951	0.181989	0.292307	0.422666	0.065457	0.139254	0.016036	0.130435	0.005294	0.005344	0.40989	0.35232	0.010852	0.169274	0.026617	0.035322
2.9685	0.199175	0.183432	0.294488	0.425086	0.065901	0.140247	0.016027	0.131999	0.005304	0.005348	0.412206	0.353873	0.011085	0.1719	0.027093	0.035811
2.969	0.201403	0.184864	0.296633	0.427512	0.066353	0.141267	0.016022	0.133563	0.005314	0.005351	0.414475	0.355359	0.011326	0.174541	0.027579	0.036314
2.9695	0.203636	0.186285	0.298743	0.429944	0.066812	0.142312	0.01602	0.135126	0.005325	0.005354	0.416696	0.356779	0.011572	0.177195	0.028075	0.036831
2.97	0.205871	0.187694	0.300815	0.432383	0.067279	0.143383	0.016021	0.136688	0.005337	0.005358	0.418868	0.35813	0.011826	0.179863	0.028581	0.037362
2.9705	0.208108	0.18909	0.30285	0.434827	0.067754	0.144482	0.016026	0.138249	0.00535	0.005361	0.420988	0.35941	0.012086	0.182544	0.029098	0.037909
2.971	0.210348	0.190473	0.304847	0.437278	0.068237	0.145607	0.016034	0.139808	0.005364	0.005364	0.423055	0.360619	0.012353	0.185236	0.029625	0.038471
2.9715	0.212588	0.191841	0.306806	0.439735	0.068728	0.146759	0.016046	0.141365	0.005379	0.005367	0.425068	0.361755	0.012626	0.18794	0.030162	0.039049
2.972	0.214829	0.193195	0.308725	0.442199	0.069227	0.147937	0.016062	0.142919	0.005395	0.00537	0.427025	0.362818	0.012907	0.190654	0.030709	0.039643
2.9725	0.217069	0.194532	0.310603	0.44467	0.069735	0.149143	0.016082	0.144472	0.005412	0.005373	0.428924	0.363806	0.013195	0.193379	0.031266	0.040254
2.973	0.219308	0.195853	0.312442	0.447148	0.070252	0.150376	0.016107	0.146021	0.005429	0.005375	0.430763	0.36472	0.013491	0.196112	0.031834	0.040882
2.9735	0.221544	0.197156	0.31424	0.449633	0.070778	0.151637	0.016136	0.147567	0.005448	0.005378	0.432542	0.365558	0.013793	0.198854	0.032411	0.041528
2.974	0.223778	0.198442	0.315998	0.452126	0.071313	0.152925	0.016169	0.14911	0.005468	0.00538	0.434258	0.366322	0.014103	0.201604	0.032999	0.042191
2.9745	0.226008	0.199708	0.317714	0.454626	0.071857	0.15424	0.016208	0.15065	0.005489	0.005382	0.435911	0.367009	0.01442	0.20436	0.033597	0.042873
2.975	0.228233	0.200955	0.31939	0.457134	0.07241	0.155583	0.016251	0.152185	0.005511	0.005384	0.4375	0.367621	0.014745	0.207122	0.034204	0.043573
2.9755	0.230453	0.202181	0.321025	0.459649	0.072973	0.156953	0.0163	0.153717	0.005534	0.005386	0.439023	0.368158	0.015078	0.209889	0.034823	0.044293
2.976	0.232667	0.203386	0.32262	0.46217	0.073546	0.158351	0.016354	0.155246	0.005558	0.005387	0.440481	0.368619	0.015419	0.21266	0.035451	0.045032
2.9765	0.234873	0.204569	0.324175	0.464698	0.074129	0.159777	0.016413	0.156771	0.005583	0.005389	0.44187	0.369005	0.015767	0.215433	0.036089	0.04579
2.977	0.237072	0.205728	0.32569	0.467232	0.074722	0.16123	0.016479	0.158293	0.00561	0.00539	0.443192	0.369317	0.016123	0.218208	0.036738	0.046569
2.9775	0.239262	0.206864	0.327165	0.469772	0.075326	0.162711	0.016549	0.159811	0.005637	0.005391	0.444445	0.369556	0.016487	0.220984	0.037397	0.047368
2.978	0.241443	0.207973	0.328602	0.472317	0.075941	0.16422	0.016626	0.161327	0.005666	0.005391	0.445629	0.369721	0.016859	0.223758	0.038066	0.048188
2.9785	0.243612	0.209057	0.329999	0.474867	0.076568	0.165756	0.016709	0.162839	0.005696	0.005392	0.446742	0.369816	0.017239	0.226531	0.038745	0.049029
2.979	0.24577	0.210113	0.331359	0.477421	0.077207	0.16732	0.016798	0.164348	0.005728	0.005392	0.447784	0.369839	0.017628	0.229301	0.039435	0.049892
2.9795	0.247915	0.21114	0.332681	0.47998	0.077858	0.168912	0.016894	0.165854	0.00576	0.005392	0.448754	0.369792	0.018025	0.232067	0.040136	0.050776
2.98	0.250046	0.212138	0.333966	0.482542	0.078521	0.17053	0.016996	0.167358	0.005794	0.005391	0.449653	0.369676	0.01843	0.234828	0.040846	0.051682
2.9805	0.252163	0.213106	0.335215	0.485107	0.079198	0.172176	0.017105	0.168859	0.005829	0.00539	0.450479	0.369492	0.018843	0.237582	0.041568	0.05261
2.981	0.254265	0.214043	0.336428	0.487674	0.079888	0.173848	0.017221	0.170358	0.005865	0.005389	0.451232	0.36924	0.019265	0.240329	0.0423	0.053561
2.9815	0.256351	0.214948	0.337605	0.490244	0.080591	0.175547	0.017344	0.171854	0.005903	0.005388	0.451912	0.368921	0.019695	0.243066	0.043042	0.054534
2.982	0.25842	0.215821	0.338748	0.492815	0.081309	0.177272	0.017474	0.173347	0.005942	0.005386	0.45252	0.368538	0.020134	0.245794	0.043795	0.055531
2.9825	0.260473	0.216662	0.339857	0.495388	0.082041	0.179023	0.017611	0.174839	0.005982	0.005384	0.453055	0.36809	0.020581	0.248509	0.044559	0.056551
2.983	0.262509	0.21747	0.340931	0.49796	0.082788	0.180799	0.017756	0.176328	0.006024	0.005381	0.453519	0.367579	0.021037	0.251211	0.045333	0.057595
2.9835	0.264528	0.218244	0.341972	0.500533	0.083549	0.182601	0.017909	0.177815	0.006067	0.005378	0.453914	0.367007	0.021501	0.253898	0.046118	0.058663
2.984	0.266529	0.218984	0.34298	0.503106	0.084327	0.184428	0.018069	0.179299	0.006112	0.005375	0.45424	0.366374	0.021974	0.256569	0.046914	0.059756
2.9845	0.268512	0.219689	0.343955	0.505678	0.085121	0.186279	0.018238	0.180781	0.006158	0.005372	0.454498	0.365683	0.022456	0.259221	0.047721	0.060873
2.985	0.270478	0.22036	0.344898	0.50825	0.085931	0.188155	0.018415	0.18226	0.006205	0.005368	0.45469	0.364933	0.022946	0.261855	0.048539	0.062016
2.9855	0.272424	0.220994	0.34581	0.51082	0.086758	0.190055	0.018601	0.183737	0.006254	0.005364	0.454818	0.364127	0.023445	0.264468	0.049368	0.063184
2.986	0.274352	0.221593	0.346692	0.513389	0.087603	0.191978	0.018796	0.185211	0.006305	0.00536	0.454881	0.363266	0.023953	0.26706	0.050208	0.064378
2.9865	0.27626	0.222155	0.347545	0.515956	0.088465	0.193925	0.018999	0.186682	0.006357	0.005355	0.454882	0.362351	0.024469	0.269629	0.051059	0.065599
2.987	0.278148	0.222679	0.34837	0.518519	0.089345	0.195894	0.019212	0.18815	0.00641	0.00535	0.45482	0.361385	0.024995	0.272175	0.051923	0.066845
2.9875	0.280016	0.223166	0.349167	0.521079	0.090244	0.197886	0.019434	0.189614	0.006465	0.005345	0.454698	0.360368	0.025528	0.274695	0.052798	0.068118
2.988	0.281864	0.223615	0.349939	0.523634	0.091162	0.1999	0.019666	0.191076	0.006521	0.00534	0.454515	0.359303	0.026071	0.277189	0.053686	0.069419
2.9885	0.28369	0.224025	0.350686	0.526182	0.0921	0.201935	0.019907	0.192534	0.006579	0.005334	0.454272	0.358191	0.026622	0.279656	0.054586	0.070746
2.989	0.285495	0.224396	0.351407	0.528724	0.093056	0.203993	0.020159	0.193988	0.006639	0.005328	0.453972	0.357035	0.027181	0.282093	0.055499	0.072102
2.9895	0.28728	0.224728	0.352106	0.531258	0.094033	0.206072	0.020421	0.195438	0.0067	0.005322	0.453614	0.355836	0.027749	0.284501	0.056425	0.073485
2.99	0.289043	0.225021	0.352781	0.533782	0.09503	0.208171	0.020693	0.196885	0.006762	0.005317	0.4532	0.354597	0.028326	0.286877	0.057364	0.074896
2.9905	0.290785	0.225273	0.353433	0.536296	0.096048	0.210292	0.020976	0.198328	0.006827	0.005311	0.452732	0.353317	0.028911	0.289222	0.058318	0.076336
2.991	0.292506	0.225486	0.354063	0.538798	0.097086	0.212433	0.02127	0.199767	0.006893	0.005305	0.452211	0.352	0.029504	0.291534	0.059285	0.077804
2.9915	0.294206	0.22566	0.354671	0.541286	0.098146	0.214594	0.021575	0.201201	0.006961	0.005299	0.451639	0.350646	0.030106	0.293812	0.060267	0.079301
2.992	0.295886	0.225794	0.355257	0.54376	0.099227	0.216775	0.021892	0.202631	0.007031	0.005293	0.451017	0.349257	0.030716	0.296056	0.061264	0.080828
2.9925	0.297545	0.22589	0.355823	0.546217	0.100329	0.218975	0.02222	0.204055	0.007102	0.005288	0.450347	0.347834	0.031334	0.298265	0.062276	0.082383
2.993	0.299183	0.225947	0.356367	0.548657	0.101453	0.221193	0.02256	0.205474	0.007176	0.005282	0.44963	0.346379	0.031961	0.300439	0.063303	0.083969
2.9935	0.300799	0.225965	0.356891	0.551077	0.102599	0.22343	0.022912	0.206888	0.007251	0.005277	0.448867	0.344892	0.032595	0.302576	0.064347	0.085584
2.994	0.302395	0.225946	0.357396	0.553477	0.103768	0.225685	0.023276	0.208295	0.007329	0.005273	0.448059	0.343375	0.033237	0.304678	0.065407	0.087229
2.9945	0.303969	0.225889	0.357881	0.555856	0.104958	0.227957	0.023653	0.209695	0.007409	0.005269	0.447207	0.341828	0.033887	0.306742	0.066483	0.088904
2.995	0.305522	0.225795	0.358347	0.558212	0.106171	0.230246	0.024042	0.211088	0.007491	0.005265	0.446313	0.340254	0.034545	0.30877	0.067577	0.090609
2.9955	0.307052	0.225664	0.358795	0.560545	0.107407	0.232551	0.024444	0.212472	0.007575	0.005262	0.445378	0.338652	0.03521	0.31076	0.068689	0.092345
2.996	0.308559	0.225496	0.359226	0.562852	0.108666	0.234873	0.02486	0.213848	0.007662	0.005259	0.444401	0.337025	0.035883	0.312713	0.069818	0.09411
2.9965	0.310044	0.225292	0.35964	0.565133	0.109947	0.237211	0.025288	0.215215	0.007751	0.005257	0.443385	0.335372	0.036563	0.314628	0.070967	0.095906
2.997	0.311506	0.225051	0.360037	0.567386	0.111251	0.239564	0.02573	0.216571	0.007842	0.005256	0.442331	0.333695	0.037251	0.316504	0.072135	0.097732
2.9975	0.312945	0.224775	0.360417	0.569611	0.112578	0.241933	0.026185	0.217917	0.007936	0.005255	0.441239	0.331994	0.037946	0.318343	0.073322	0.099589
2.998	0.314361	0.224465	0.360782	0.571805	0.113928	0.244316	0.026654	0.219251	0.008032	0.005256	0.44011	0.330272	0.038647	0.320143	0.07453	0.101476
2.9985	0.315753	0.22412	0.361131	0.573968	0.115301	0.246712	0.027137	0.220572	0.008131	0.005257	0.438944	0.328529	0.039356	0.321904	0.075758	0.103392
2.999	0.317123	0.223741	0.361465	0.576099	0.116696	0.249123	0.027634	0.221879	0.008233	0.005259	0.437743	0.326766	0.040072	0.323625	0.077007	0.10534
2.9995	0.31847	0.223331	0.361784	0.578195	0.118114	0.251546	0.028145	0.223172	0.008337	0.005262	0.436508	0.324984	0.040794	0.325307	0.078277	0.107317
3	0.319794	0.22289	0.362088	0.580254	0.119555	0.253981	0.028671	0.22445	0.008444	0.005266	0.435238	0.323185	0.041523	0.326949	0.07957	0.109324
3.0005	0.321094	0.222419	0.362377	0.582277	0.121018	0.256427	0.029211	0.225711	0.008555	0.005272	0.433936	0.321368	0.042258	0.328551	0.080884	0.11136
3.001	0.322372	0.22192	0.362651	0.584259	0.122503	0.258884	0.029766	0.226954	0.008668	0.005278	0.4326	0.319536	0.043	0.330112	0.082222	0.113427
3.0015	0.323627	0.221393	0.362911	0.5862	0.12401	0.261351	0.030336	0.228179	0.008784	0.005286	0.431233	0.317689	0.043748	0.331632	0.083582	0.115522
3.002	0.324859	0.22084	0.363156	0.588099	0.125538	0.263826	0.030921	0.229385	0.008904	0.005296	0.429834	0.315828	0.044502	0.333112	0.084966	0.117647
3.0025	0.326067	0.220263	0.363387	0.589953	0.127088	0.26631	0.03152	0.230572	0.009027	0.005307	0.428404	0.313954	0.045263	0.334551	0.086374	0.119801
3.003	0.327252	0.219661	0.363603	0.591761	0.128659	0.268803	0.032136	0.231737	0.009154	0.005319	0.426943	0.312068	0.046029	0.335948	0.087807	0.121984
3.0035	0.328413	0.219037	0.363807	0.593521	0.13025	0.271303	0.032766	0.232881	0.009284	0.005334	0.425452	0.310169	0.046801	0.337304	0.089263	0.124195
3.004	0.32955	0.218392	0.363997	0.595233	0.131861	0.27381	0.033412	0.234003	0.009418	0.00535	0.423932	0.30826	0.047579	0.338619	0.090745	0.126435
3.0045	0.330662	0.217726	0.364174	0.596893	0.133493	0.276325	0.034073	0.235102	0.009556	0.005368	0.422382	0.306341	0.048364	0.339891	0.092253	0.128702
3.005	0.331748	0.21704	0.364338	0.598502	0.135144	0.278846	0.03475	0.236177	0.009697	0.005388	0.420802	0.304411	0.049153	0.341121	0.093786	0.130996
3.0055	0.332809	0.216336	0.364489	0.600057	0.136813	0.281374	0.035443	0.237228	0.009843	0.00541	0.419193	0.302473	0.049949	0.342309	0.095345	0.133318
3.006	0.333842	0.215614	0.364628	0.601556	0.138502	0.283909	0.036152	0.238255	0.009993	0.005435	0.417555	0.300527	0.05075	0.343454	0.096931	0.135667
3.0065	0.334848	0.214875	0.364753	0.602998	0.140209	0.286449	0.036877	0.239257	0.010147	0.005462	0.415888	0.298573	0.051557	0.344557	0.098544	0.138042
3.007	0.335827	0.214119	0.364865	0.604382	0.141933	0.288994	0.037618	0.240234	0.010306	0.005491	0.414192	0.296612	0.052368	0.345617	0.100183	0.140443
3.0075	0.336777	0.213349	0.364964	0.605704	0.143674	0.291544	0.038376	0.241187	0.010469	0.005523	0.412469	0.294645	0.053186	0.346636	0.10185	0.142869
3.008	0.337698	0.212564	0.36505	0.606964	0.145432	0.294098	0.03915	0.242115	0.010638	0.005558	0.41072	0.292672	0.054008	0.347612	0.103545	0.145321
3.0085	0.33859	0.211764	0.365122	0.608158	0.147206	0.296656	0.03994	0.243018	0.010811	0.005595	0.408944	0.290695	0.054835	0.348547	0.105268	0.147797
3.009	0.339454	0.210952	0.36518	0.609286	0.148996	0.299217	0.040747	0.243897	0.01099	0.005636	0.407143	0.288714	0.055667	0.34944	0.107018	0.150297
3.0095	0.340288	0.210127	0.365223	0.610345	0.1508	0.301781	0.04157	0.244751	0.011174	0.005679	0.405318	0.28673	0.056504	0.350292	0.108798	0.15282
3.01	0.341094	0.209289	0.365252	0.611333	0.152618	0.304346	0.04241	0.24558	0.011363	0.005726	0.40347	0.284744	0.057346	0.351103	0.110606	0.155366
3.0105	0.34187	0.20844	0.365266	0.612249	0.15445	0.306914	0.043267	0.246384	0.011558	0.005776	0.401599	0.282755	0.058192	0.351874	0.112442	0.157934
3.011	0.342618	0.20758	0.365266	0.613092	0.156295	0.309482	0.044141	0.247163	0.011759	0.005829	0.399706	0.280765	0.059044	0.352606	0.114308	0.160523
3.0115	0.343338	0.206709	0.365249	0.613859	0.158151	0.312052	0.045032	0.247916	0.011966	0.005886	0.397791	0.278774	0.0599	0.353299	0.116202	0.163133
3.012	0.344029	0.205827	0.365218	0.614551	0.160019	0.314624	0.04594	0.248643	0.01218	0.005947	0.395856	0.276783	0.060761	0.353953	0.118126	0.165763
3.0125	0.344691	0.204937	0.36517	0.615167	0.161897	0.317196	0.046866	0.249345	0.0124	0.006011	0.3939	0.274792	0.061627	0.354569	0.120079	0.168412
3.013	0.345325	0.204037	0.365106	0.615706	0.163785	0.31977	0.047808	0.25002	0.012626	0.006079	0.391926	0.272802	0.062497	0.355147	0.122061	0.171079
3.0135	0.34593	0.203128	0.365026	0.616167	0.165682	0.322345	0.048767	0.250668	0.01286	0.006151	0.389933	0.270812	0.063372	0.355688	0.124072	0.173765
3.014	0.346507	0.202211	0.364929	0.616551	0.167587	0.324923	0.049743	0.251289	0.0131	0.006228	0.387923	0.268824	0.064253	0.356192	0.126113	0.176467
3.0145	0.347055	0.201286	0.364817	0.616858	0.169499	0.327503	0.050737	0.251884	0.013348	0.006308	0.385896	0.266839	0.065138	0.356659	0.128183	0.179186
3.015	0.347575	0.200354	0.364688	0.617087	0.171419	0.330085	0.051748	0.252452	0.013602	0.006394	0.383852	0.264856	0.066028	0.35709	0.130283	0.18192
3.0155	0.348067	0.199415	0.364544	0.617241	0.173344	0.33267	0.052775	0.252993	0.013865	0.006484	0.381794	0.262877	0.066923	0.357483	0.132412	0.18467
3.016	0.348531	0.198469	0.364384	0.617319	0.175275	0.33526	0.05382	0.253508	0.014135	0.006578	0.379721	0.260902	0.067822	0.357841	0.13457	0.187433
3.0165	0.348968	0.197516	0.364208	0.617324	0.17721	0.337853	0.054882	0.253998	0.014413	0.006678	0.377633	0.258932	0.068727	0.358162	0.136758	0.19021
3.017	0.349378	0.196558	0.364017	0.617255	0.179149	0.340452	0.055961	0.254462	0.014699	0.006782	0.375532	0.256967	0.069638	0.358447	0.138975	0.192999
3.0175	0.349761	0.195594	0.36381	0.617113	0.18109	0.343058	0.057058	0.254903	0.014993	0.006892	0.373417	0.255008	0.070553	0.358697	0.141222	0.1958
3.018	0.350118	0.194625	0.363587	0.616898	0.183034	0.345671	0.058171	0.255319	0.015295	0.007007	0.371289	0.253055	0.071475	0.358912	0.143499	0.198612
3.0185	0.350448	0.193651	0.363348	0.616613	0.184979	0.348293	0.059301	0.255713	0.015606	0.007128	0.369147	0.251108	0.072402	0.359092	0.145806	0.201433
3.019	0.350753	0.192671	0.363094	0.616256	0.186924	0.350925	0.060449	0.256085	0.015925	0.007255	0.366993	0.249169	0.073336	0.359238	0.148142	0.204264
3.0195	0.351032	0.191687	0.362822	0.615828	0.188869	0.353568	0.061613	0.256434	0.016254	0.007387	0.364826	0.247238	0.074277	0.35935	0.150509	0.207102
3.02	0.351286	0.190698	0.362534	0.615331	0.190812	0.356223	0.062795	0.256762	0.016591	0.007526	0.362647	0.245316	0.075224	0.359429	0.152905	0.209947
3.0205	0.351516	0.189706	0.362229	0.614765	0.192753	0.35889	0.063993	0.257069	0.016938	0.00767	0.360455	0.243403	0.07618	0.359474	0.155332	0.212799
3.021	0.351721	0.188709	0.361906	0.614131	0.194691	0.361572	0.065208	0.257356	0.017294	0.007821	0.35825	0.241499	0.077143	0.359486	0.157788	0.215655
3.0215	0.351902	0.187708	0.361565	0.61343	0.196626	0.364268	0.06644	0.257623	0.017659	0.007979	0.356034	0.239607	0.078114	0.359466	0.160275	0.218516
3.022	0.352058	0.186703	0.361206	0.612663	0.198558	0.36698	0.067689	0.257872	0.018035	0.008143	0.353805	0.237725	0.079093	0.359412	0.162792	0.22138
3.0225	0.35219	0.185695	0.360828	0.61183	0.200484	0.369709	0.068955	0.258103	0.01842	0.008314	0.351563	0.235856	0.080082	0.359325	0.165339	0.224247
3.023	0.352297	0.184684	0.360431	0.610932	0.202406	0.372457	0.070237	0.258316	0.018816	0.008492	0.34931	0.234	0.081079	0.359205	0.167917	0.227114
3.0235	0.35238	0.183669	0.360013	0.60997	0.204323	0.375223	0.071536	0.258514	0.019222	0.008677	0.347044	0.232159	0.082086	0.359052	0.170525	0.229983
3.024	0.352439	0.182652	0.359575	0.608945	0.206234	0.378009	0.072852	0.258695	0.019639	0.00887	0.344766	0.230332	0.083103	0.358866	0.173163	0.23285
3.0245	0.352472	0.181632	0.359115	0.607857	0.20814	0.380816	0.074185	0.258862	0.020066	0.00907	0.342476	0.228522	0.08413	0.358647	0.175831	0.235716
3.025	0.352482	0.180609	0.358633	0.606709	0.210039	0.383643	0.075534	0.259015	0.020505	0.009278	0.340174	0.226728	0.085168	0.358394	0.17853	0.238579
3.0255	0.352466	0.179585	0.358128	0.605502	0.211931	0.386493	0.0769	0.259154	0.020954	0.009494	0.337859	0.224953	0.086216	0.358109	0.181258	0.241439
3.026	0.352427	0.178558	0.3576	0.604236	0.213816	0.389365	0.078282	0.25928	0.021415	0.009718	0.335531	0.223196	0.087276	0.357791	0.184016	0.244294
3.0265	0.352362	0.17753	0.357048	0.602912	0.215694	0.39226	0.079682	0.259394	0.021887	0.009951	0.33319	0.221459	0.088347	0.35744	0.186803	0.247143
3.027	0.352273	0.1765	0.356471	0.601533	0.217563	0.395178	0.081097	0.259496	0.022371	0.010192	0.330836	0.219743	0.08943	0.357056	0.189619	0.249985
3.0275	0.352159	0.175469	0.355869	0.6001	0.219424	0.398119	0.082529	0.259587	0.022867	0.010441	0.328469	0.218049	0.090525	0.35664	0.192464	0.25282
3.028	0.35202	0.174437	0.355241	0.598614	0.221275	0.401084	0.083977	0.259667	0.023374	0.0107	0.326088	0.216377	0.091632	0.356191	0.195337	0.255645
3.0285	0.351857	0.173404	0.354586	0.597075	0.223116	0.404072	0.085442	0.259737	0.023894	0.010967	0.323692	0.214729	0.092752	0.35571	0.198238	0.258461
3.029	0.351668	0.172372	0.353905	0.595487	0.224946	0.407083	0.086923	0.259797	0.024427	0.011244	0.321283	0.213105	0.093884	0.355196	0.201167	0.261265
3.0295	0.351454	0.17134	0.353196	0.593849	0.226765	0.410118	0.08842	0.259848	0.024972	0.01153	0.318859	0.211507	0.095029	0.35465	0.204122	0.264057
3.03	0.351213	0.170309	0.352459	0.592163	0.228571	0.413177	0.089933	0.259891	0.02553	0.011826	0.316422	0.209935	0.096188	0.354072	0.207103	0.266837
3.0305	0.350947	0.169279	0.351694	0.590431	0.230364	0.41626	0.091462	0.259926	0.026101	0.012131	0.31397	0.208389	0.097359	0.353463	0.210109	0.269603
3.031	0.350653	0.16825	0.350899	0.588656	0.232143	0.419366	0.093006	0.259953	0.026685	0.012447	0.311505	0.206871	0.098544	0.352823	0.21314	0.272354
3.0315	0.350333	0.167223	0.350075	0.586838	0.233908	0.422497	0.094567	0.259973	0.027283	0.012772	0.309027	0.20538	0.099742	0.352151	0.216196	0.27509
3.032	0.349985	0.166198	0.349221	0.58498	0.235656	0.425651	0.096143	0.259987	0.027894	0.013107	0.306535	0.203918	0.100953	0.35145	0.219274	0.277809
3.0325	0.34961	0.165175	0.348337	0.583084	0.237388	0.428829	0.097735	0.259994	0.02852	0.013453	0.30403	0.202485	0.102179	0.350719	0.222376	0.28051
3.033	0.349207	0.164154	0.347423	0.581153	0.239103	0.43203	0.099342	0.259996	0.029159	0.01381	0.301513	0.201081	0.103418	0.349959	0.225499	0.283193
3.0335	0.348775	0.163135	0.346479	0.579188	0.240801	0.435255	0.100964	0.259992	0.029813	0.014177	0.298983	0.199707	0.10467	0.34917	0.228644	0.285855
3.034	0.348314	0.162119	0.345505	0.57719	0.242481	0.438501	0.102601	0.259983	0.030481	0.014555	0.296442	0.198363	0.105937	0.348353	0.231809	0.288495
3.0345	0.347824	0.161104	0.344501	0.575163	0.244142	0.44177	0.104253	0.259968	0.031163	0.014944	0.293888	0.19705	0.107218	0.347508	0.234994	0.291113
3.035	0.347304	0.160092	0.343467	0.573108	0.245786	0.44506	0.10592	0.259949	0.031861	0.015344	0.291324	0.195767	0.108513	0.346635	0.238197	0.293706
3.0355	0.346754	0.159082	0.342405	0.571027	0.247413	0.448371	0.107601	0.259926	0.032574	0.015755	0.288748	0.194515	0.109821	0.345735	0.241418	0.296274
3.036	0.346173	0.158075	0.341314	0.568921	0.249021	0.451701	0.109295	0.259898	0.033302	0.016178	0.286161	0.193294	0.111144	0.344807	0.244654	0.298816
3.0365	0.345561	0.15707	0.340195	0.566792	0.250612	0.455051	0.111004	0.259865	0.034046	0.016613	0.283563	0.192105	0.11248	0.343851	0.247907	0.301329
3.037	0.344916	0.156067	0.339049	0.564641	0.252186	0.458418	0.112726	0.259829	0.034805	0.01706	0.280954	0.190946	0.11383	0.342869	0.251173	0.303813
3.0375	0.344238	0.155066	0.337877	0.562471	0.253742	0.461801	0.114461	0.259788	0.035581	0.017519	0.278334	0.189819	0.115194	0.341859	0.254452	0.306267
3.038	0.343527	0.154067	0.336679	0.560282	0.255281	0.465201	0.116209	0.259744	0.036373	0.01799	0.275703	0.188723	0.116572	0.340823	0.257742	0.308689
3.0385	0.342781	0.15307	0.335456	0.558076	0.256802	0.468614	0.11797	0.259696	0.037182	0.018473	0.27306	0.187659	0.117962	0.33976	0.261043	0.311078
3.039	0.342001	0.152075	0.334209	0.555855	0.258306	0.47204	0.119743	0.259645	0.038008	0.018969	0.270406	0.186626	0.119366	0.33867	0.264353	0.313432
3.0395	0.341184	0.151081	0.33294	0.553619	0.259793	0.475477	0.121528	0.259589	0.038851	0.019479	0.26774	0.185625	0.120783	0.337553	0.26767	0.315751
3.04	0.34033	0.150088	0.331649	0.551371	0.261262	0.478924	0.123325	0.25953	0.039712	0.020001	0.265062	0.184656	0.122212	0.33641	0.270995	0.318033
3.0405	0.339439	0.149096	0.330338	0.549111	0.262713	0.482379	0.125135	0.259468	0.040591	0.020536	0.262372	0.183719	0.123654	0.33524	0.274326	0.320277
3.041	0.33851	0.148106	0.329008	0.546842	0.264148	0.485841	0.126955	0.259402	0.041488	0.021085	0.259671	0.182815	0.125108	0.334043	0.277663	0.322482
3.0415	0.337543	0.147116	0.327661	0.544564	0.265565	0.489309	0.128787	0.259332	0.042404	0.021648	0.256958	0.181943	0.126574	0.33282	0.281005	0.324648
3.042	0.336538	0.146128	0.326298	0.542278	0.266964	0.492781	0.130631	0.25926	0.04334	0.022225	0.254233	0.181104	0.128052	0.33157	0.28435	0.326775
3.0425	0.335494	0.145141	0.324921	0.539987	0.268346	0.496256	0.132485	0.259184	0.044294	0.022815	0.251496	0.180298	0.12954	0.330295	0.2877	0.328862
3.043	0.334413	0.144155	0.323533	0.537691	0.269709	0.499731	0.134351	0.259106	0.045269	0.023421	0.248748	0.179524	0.13104	0.328995	0.291053	0.330909
3.0435	0.333295	0.143171	0.322133	0.535392	0.271055	0.503206	0.136227	0.259026	0.046264	0.02404	0.245989	0.178784	0.132549	0.327669	0.294408	0.332916
3.044	0.33214	0.142189	0.320725	0.533092	0.272382	0.506679	0.138113	0.258943	0.04728	0.024675	0.243218	0.178077	0.134069	0.326318	0.297765	0.334883
3.0445	0.330949	0.141208	0.319309	0.530792	0.27369	0.510147	0.140009	0.258859	0.048317	0.025324	0.240437	0.177404	0.135598	0.324943	0.301123	0.336809
3.045	0.329721	0.14023	0.317888	0.528493	0.274978	0.513611	0.141916	0.258774	0.049375	0.025989	0.237646	0.176765	0.137135	0.323545	0.304482	0.338695
3.0455	0.328459	0.139254	0.316461	0.526198	0.276247	0.517067	0.143832	0.258689	0.050455	0.02667	0.234846	0.176161	0.138681	0.322123	0.307841	0.340539
3.046	0.327162	0.13828	0.315032	0.523907	0.277496	0.520514	0.145758	0.258604	0.051558	0.027366	0.232036	0.175591	0.140236	0.320679	0.311199	0.342342
3.0465	0.32583	0.137309	0.3136	0.521621	0.278724	0.523952	0.147694	0.258519	0.052684	0.028078	0.229219	0.175057	0.141797	0.319214	0.314556	0.344105
3.047	0.324465	0.13634	0.312168	0.519342	0.279932	0.527376	0.14964	0.258436	0.053833	0.028806	0.226395	0.174558	0.143366	0.317728	0.317911	0.345826
3.0475	0.323067	0.135373	0.310735	0.51707	0.281118	0.530787	0.151595	0.258355	0.055005	0.029551	0.223565	0.174095	0.144941	0.316221	0.321266	0.347508
3.048	0.321637	0.134409	0.309305	0.514807	0.282283	0.534182	0.15356	0.258275	0.056202	0.030313	0.220728	0.173669	0.146522	0.314694	0.324619	0.349149
3.0485	0.320176	0.133447	0.307877	0.512552	0.283426	0.537558	0.155535	0.258198	0.057423	0.031092	0.217887	0.17328	0.148108	0.313149	0.327971	0.350753
3.049	0.318686	0.132488	0.306452	0.510307	0.284548	0.540914	0.157519	0.258124	0.058669	0.031888	0.215042	0.172929	0.1497	0.311586	0.331323	0.352318
3.0495	0.317167	0.131532	0.305033	0.508071	0.285648	0.544248	0.159514	0.258053	0.05994	0.032702	0.212194	0.172617	0.151295	0.310006	0.334675	0.353847
3.05	0.315622	0.130578	0.303619	0.505847	0.286727	0.547558	0.161519	0.257985	0.061238	0.033534	0.209344	0.172343	0.152893	0.30841	0.338027	0.355341
3.0505	0.314052	0.129626	0.302211	0.503634	0.287784	0.550841	0.163534	0.257922	0.062562	0.034383	0.206493	0.172109	0.154495	0.3068	0.341379	0.3568
3.051	0.312457	0.128677	0.300812	0.501432	0.28882	0.554097	0.16556	0.257864	0.063912	0.035251	0.203642	0.171916	0.156098	0.305175	0.344733	0.358226
3.0515	0.310841	0.12773	0.299423	0.499244	0.289834	0.557323	0.167597	0.257812	0.065291	0.036138	0.200793	0.171763	0.157703	0.303538	0.348088	0.359621
3.052	0.309205	0.126786	0.298044	0.497068	0.290826	0.560517	0.169645	0.257767	0.066698	0.037044	0.197946	0.171653	0.159308	0.301888	0.351445	0.360984
3.0525	0.30755	0.125843	0.296676	0.494906	0.291797	0.563678	0.171703	0.25773	0.068133	0.037968	0.195102	0.171584	0.160913	0.300227	0.354805	0.362318
3.053	0.305878	0.124903	0.295322	0.492758	0.292746	0.566803	0.173774	0.2577	0.069597	0.038912	0.192264	0.171559	0.162516	0.298554	0.358167	0.363623
3.0535	0.30419	0.123966	0.293982	0.490623	0.293674	0.56989	0.175855	0.25768	0.071092	0.039875	0.189431	0.171578	0.164117	0.296871	0.361532	0.3649
3.054	0.302488	0.123031	0.292658	0.488503	0.29458	0.572939	0.177949	0.25767	0.072616	0.040858	0.186605	0.171641	0.165715	0.295178	0.364901	0.366151
3.0545	0.300774	0.122098	0.29135	0.486397	0.295466	0.575947	0.180055	0.25767	0.074171	0.041861	0.183787	0.17175	0.167309	0.293476	0.368275	0.367377
3.055	0.299048	0.121169	0.290059	0.484306	0.296331	0.578913	0.182173	0.257682	0.075757	0.042884	0.180979	0.171904	0.168898	0.291765	0.371653	0.368579
3.0555	0.297312	0.120242	0.288786	0.482229	0.297176	0.581836	0.184304	0.257706	0.077375	0.043927	0.17818	0.172104	0.170481	0.290045	0.375038	0.369758
3.056	0.295567	0.119319	0.287533	0.480166	0.298001	0.584713	0.186447	0.257743	0.079026	0.044991	0.175393	0.172351	0.172057	0.288317	0.37843	0.370917
3.0565	0.293815	0.118399	0.2863	0.478118	0.298807	0.587543	0.188603	0.257794	0.080708	0.046075	0.172617	0.172646	0.173624	0.286582	0.381828	0.372056
3.057	0.292058	0.117483	0.285089	0.476083	0.299595	0.590324	0.190772	0.257859	0.082424	0.04718	0.169855	0.172989	0.175183	0.284839	0.385234	0.373176
3.0575	0.290296	0.11657	0.2839	0.474062	0.300365	0.593056	0.192953	0.257939	0.084174	0.048306	0.167106	0.173381	0.176731	0.28309	0.388649	0.374281
3.058	0.288531	0.115662	0.282735	0.472055	0.301118	0.595736	0.195147	0.258034	0.085958	0.049453	0.164372	0.173821	0.178269	0.281334	0.392073	0.37537
3.0585	0.286765	0.114757	0.281595	0.47006	0.301854	0.598363	0.197354	0.258145	0.087777	0.050621	0.161654	0.17431	0.179794	0.279572	0.395505	0.376446
3.059	0.284999	0.113857	0.280481	0.468077	0.302573	0.600936	0.199573	0.258272	0.089632	0.051811	0.158953	0.17485	0.181307	0.277804	0.398948	0.377509
3.0595	0.283235	0.112961	0.279393	0.466105	0.303276	0.603455	0.201804	0.258416	0.091522	0.053023	0.156269	0.17544	0.182806	0.27603	0.4024	0.378563
3.06	0.281473	0.112069	0.278334	0.464144	0.303964	0.605918	0.204047	0.258577	0.093449	0.054256	0.153603	0.176081	0.184292	0.27425	0.405863	0.379608
3.0605	0.279716	0.111182	0.277303	0.462192	0.304636	0.608324	0.206302	0.258755	0.095412	0.055511	0.150956	0.176773	0.185763	0.272464	0.409336	0.380645
3.061	0.277964	0.110299	0.276302	0.460249	0.305292	0.610674	0.208568	0.258951	0.097412	0.056788	0.148329	0.177517	0.187221	0.270672	0.41282	0.381677
3.0615	0.276219	0.109421	0.275332	0.458314	0.305934	0.612966	0.210845	0.259164	0.099451	0.058088	0.145723	0.178312	0.188663	0.268873	0.416314	0.382703
3.062	0.274482	0.108548	0.274394	0.456385	0.306561	0.615199	0.213133	0.259396	0.101527	0.059409	0.143138	0.179161	0.190091	0.267069	0.41982	0.383726
3.0625	0.272755	0.107679	0.27349	0.454462	0.307173	0.617372	0.215432	0.259646	0.103642	0.060754	0.140574	0.180061	0.191504	0.265258	0.423337	0.384746
3.063	0.271038	0.106816	0.27262	0.452542	0.307771	0.619485	0.21774	0.259915	0.105796	0.062121	0.138034	0.181015	0.192902	0.26344	0.426866	0.385765
3.0635	0.269333	0.105957	0.271785	0.450627	0.308355	0.621537	0.220058	0.260203	0.10799	0.06351	0.135517	0.182022	0.194285	0.261615	0.430405	0.386784
3.064	0.26764	0.105104	0.270987	0.448713	0.308925	0.623527	0.222384	0.26051	0.110223	0.064923	0.133024	0.183082	0.195652	0.259785	0.433956	0.387804
3.0645	0.26596	0.104256	0.270227	0.446801	0.309482	0.625456	0.224719	0.260837	0.112497	0.066358	0.130556	0.184197	0.197005	0.257948	0.437517	0.388825
3.065	0.264294	0.103413	0.269506	0.444889	0.310026	0.627323	0.227061	0.261184	0.114811	0.067817	0.128113	0.185364	0.198342	0.256105	0.441089	0.389849
3.0655	0.262643	0.102576	0.268824	0.442978	0.310557	0.629129	0.22941	0.261552	0.117166	0.069298	0.125695	0.186586	0.199666	0.254256	0.444672	0.390877
3.066	0.261008	0.101745	0.268182	0.441066	0.311076	0.630875	0.231766	0.261939	0.119562	0.070803	0.123304	0.187862	0.200975	0.252403	0.448263	0.391909
3.0665	0.25939	0.10092	0.267582	0.439152	0.311583	0.632561	0.234126	0.262347	0.121999	0.07233	0.12094	0.189192	0.202271	0.250544	0.451865	0.392946
3.067	0.257787	0.100101	0.267024	0.437238	0.312079	0.63419	0.236491	0.262776	0.124478	0.073881	0.118603	0.190576	0.203553	0.248681	0.455475	0.39399
3.0675	0.256203	0.099287	0.26651	0.435321	0.312563	0.635761	0.23886	0.263227	0.126999	0.075454	0.116294	0.192014	0.204822	0.246814	0.459093	0.39504
3.068	0.254635	0.098481	0.266039	0.433404	0.313036	0.637276	0.241231	0.263699	0.129561	0.077051	0.114013	0.193506	0.206079	0.244943	0.46272	0.396098
3.0685	0.253086	0.09768	0.265614	0.431485	0.313499	0.638736	0.243603	0.264193	0.132165	0.07867	0.11176	0.195052	0.207323	0.243069	0.466353	0.397164
3.069	0.251555	0.096886	0.265234	0.429566	0.313952	0.640142	0.245976	0.26471	0.134812	0.080312	0.109537	0.196651	0.208556	0.241193	0.469994	0.398239
3.0695	0.250043	0.096099	0.264901	0.427646	0.314394	0.641496	0.248349	0.26525	0.1375	0.081977	0.107343	0.198304	0.209776	0.239316	0.47364	0.399322
3.07	0.248548	0.095318	0.264615	0.425727	0.314826	0.642797	0.250719	0.265813	0.140231	0.083664	0.105179	0.20001	0.210984	0.237438	0.477292	0.400416
3.0705	0.247072	0.094543	0.264377	0.423808	0.315249	0.644048	0.253087	0.266399	0.143003	0.085374	0.103046	0.201769	0.21218	0.23556	0.480947	0.401519
3.071	0.245615	0.093775	0.264189	0.42189	0.315661	0.645249	0.25545	0.267009	0.145818	0.087106	0.100942	0.20358	0.213364	0.233682	0.484606	0.402632
3.0715	0.244176	0.093015	0.26405	0.419975	0.316064	0.646402	0.257807	0.267642	0.148674	0.08886	0.09887	0.205444	0.214537	0.231806	0.488266	0.403756
3.072	0.242756	0.09226	0.263962	0.418062	0.316457	0.647508	0.260157	0.268299	0.151572	0.090637	0.096828	0.20736	0.215697	0.229932	0.491928	0.40489
3.0725	0.241354	0.091513	0.263926	0.416153	0.316841	0.648566	0.262499	0.26898	0.154511	0.092435	0.094818	0.209328	0.216846	0.228061	0.495588	0.406035
3.073	0.239971	0.090773	0.263943	0.414249	0.317216	0.649578	0.264832	0.269685	0.157492	0.094255	0.09284	0.211348	0.217983	0.226194	0.499247	0.40719
3.0735	0.238606	0.09004	0.264013	0.412352	0.317582	0.650543	0.267153	0.270414	0.160513	0.096096	0.090893	0.213419	0.219109	0.22433	0.502902	0.408355
3.074	0.23726	0.089314	0.264137	0.410462	0.317939	0.651463	0.269462	0.271169	0.163576	0.097959	0.088978	0.215542	0.220223	0.222471	0.506553	0.40953
3.0745	0.235932	0.088595	0.264315	0.408582	0.318287	0.652338	0.271757	0.271948	0.166679	0.099842	0.087095	0.217715	0.221326	0.220617	0.510198	0.410714
3.075	0.234623	0.087883	0.264548	0.406713	0.318626	0.653167	0.274036	0.272753	0.169822	0.101747	0.085244	0.219939	0.222418	0.218769	0.513835	0.411907
3.0755	0.233333	0.087179	0.264838	0.404855	0.318958	0.653951	0.276299	0.273585	0.173005	0.103671	0.083425	0.222214	0.223499	0.216927	0.517464	0.413109
3.076	0.232061	0.086482	0.265182	0.403012	0.319281	0.654689	0.278543	0.274443	0.176227	0.105616	0.081639	0.224539	0.224569	0.215091	0.521082	0.414318
3.0765	0.230807	0.085793	0.265584	0.401183	0.319595	0.655382	0.280768	0.275328	0.179488	0.107581	0.079885	0.226914	0.225628	0.213262	0.524689	0.415534
3.077	0.229572	0.085111	0.266042	0.39937	0.319902	0.656029	0.28297	0.276242	0.182788	0.109566	0.078164	0.229338	0.226676	0.211441	0.528283	0.416755
3.0775	0.228355	0.084437	0.266556	0.397575	0.3202	0.65663	0.285149	0.277183	0.186127	0.111571	0.076475	0.231812	0.227713	0.209627	0.531863	0.417982
3.078	0.227157	0.08377	0.267128	0.395798	0.32049	0.657184	0.287303	0.278152	0.189503	0.113594	0.074818	0.234336	0.228738	0.207822	0.535427	0.419214
3.0785	0.225977	0.083111	0.267757	0.394041	0.320772	0.657693	0.28943	0.279151	0.192916	0.115637	0.073194	0.236909	0.229753	0.206027	0.538973	0.420448
3.079	0.224815	0.08246	0.268443	0.392305	0.321046	0.658157	0.291528	0.280178	0.196366	0.117699	0.071602	0.239531	0.230756	0.20424	0.542501	0.421685
3.0795	0.223671	0.081818	0.269187	0.390591	0.321313	0.658576	0.293595	0.281235	0.199852	0.11978	0.070042	0.242201	0.231747	0.202464	0.546008	0.422923
3.08	0.222545	0.081183	0.269989	0.3889	0.321573	0.658951	0.295629	0.282322	0.203373	0.121879	0.068515	0.24492	0.232726	0.200698	0.549493	0.424162
3.0805	0.221437	0.080557	0.270848	0.387232	0.321827	0.659282	0.297629	0.283438	0.20693	0.123997	0.067019	0.247688	0.233693	0.198943	0.552953	0.425399
3.081	0.220346	0.079939	0.271764	0.38559	0.322074	0.659571	0.299592	0.284584	0.21052	0.126132	0.065556	0.250502	0.234648	0.197199	0.556389	0.426634
3.0815	0.219273	0.079329	0.272738	0.383973	0.322317	0.659817	0.301518	0.28576	0.214144	0.128286	0.064124	0.253364	0.235591	0.195467	0.559796	0.427865
3.082	0.218218	0.078729	0.27377	0.382382	0.322554	0.660021	0.303405	0.286966	0.217801	0.130456	0.062724	0.256273	0.236521	0.193746	0.563175	0.429092
3.0825	0.217179	0.078137	0.274858	0.380818	0.322788	0.660182	0.305252	0.288202	0.22149	0.132644	0.061356	0.259227	0.237438	0.192038	0.566523	0.430313
3.083	0.216159	0.077554	0.276004	0.379282	0.323017	0.660301	0.30706	0.289467	0.225209	0.134849	0.060019	0.262227	0.238342	0.190342	0.569839	0.431528
3.0835	0.215156	0.076979	0.277206	0.377775	0.323243	0.660376	0.308826	0.290761	0.228959	0.137071	0.058713	0.265271	0.239232	0.188659	0.573119	0.432735
3.084	0.214171	0.076414	0.278465	0.376298	0.323465	0.660408	0.310551	0.292085	0.232738	0.139308	0.057439	0.26836	0.240109	0.186989	0.576363	0.433934
3.0845	0.213205	0.075858	0.279781	0.37485	0.323685	0.660396	0.312234	0.293438	0.236544	0.141561	0.056196	0.271491	0.240973	0.185332	0.579568	0.435124
3.085	0.212257	0.075311	0.281153	0.373434	0.323903	0.660339	0.313876	0.294819	0.240379	0.14383	0.054984	0.274665	0.241823	0.183688	0.582732	0.436304
3.0855	0.211328	0.074773	0.282581	0.372049	0.324118	0.660238	0.315474	0.296228	0.244239	0.146114	0.053803	0.27788	0.242659	0.182059	0.585852	0.437473
3.086	0.210418	0.074244	0.284064	0.370697	0.324332	0.660092	0.31703	0.297666	0.248125	0.148414	0.052652	0.281136	0.243482	0.180443	0.588926	0.438631
3.0865	0.209527	0.073726	0.285602	0.369378	0.324545	0.659901	0.318542	0.299132	0.252035	0.150728	0.051532	0.284433	0.244292	0.178843	0.591951	0.439778
3.087	0.208656	0.073217	0.287195	0.368092	0.324757	0.659665	0.320009	0.300625	0.255969	0.153057	0.050442	0.287768	0.245088	0.177257	0.594926	0.440912
3.0875	0.207805	0.072719	0.288842	0.366842	0.32497	0.659386	0.321432	0.302146	0.259925	0.155401	0.049382	0.291142	0.245871	0.175687	0.597849	0.442035
3.088	0.206974	0.07223	0.290543	0.365626	0.325182	0.659061	0.32281	0.303694	0.263902	0.157759	0.048352	0.294554	0.246639	0.174133	0.600718	0.443145
3.0885	0.206163	0.071753	0.292298	0.364447	0.325395	0.658692	0.324143	0.30527	0.2679	0.160131	0.047351	0.298001	0.247393	0.172595	0.60353	0.444241
3.089	0.205372	0.071286	0.294105	0.363304	0.32561	0.658278	0.32543	0.306874	0.271916	0.162517	0.04638	0.301485	0.248133	0.171075	0.606285	0.445324
3.0895	0.204602	0.07083	0.295965	0.362198	0.325825	0.657818	0.326672	0.308505	0.275951	0.164917	0.045438	0.305002	0.248858	0.169572	0.608979	0.446393
3.09	0.203852	0.070385	0.297876	0.36113	0.326041	0.657312	0.327869	0.310165	0.280002	0.16733	0.044524	0.308552	0.249567	0.168088	0.611611	0.447448
3.0905	0.203124	0.069951	0.299839	0.3601	0.326259	0.656759	0.329021	0.311853	0.28407	0.169756	0.043639	0.312135	0.250261	0.166623	0.614179	0.448488
3.091	0.202415	0.069529	0.301851	0.359109	0.326477	0.656158	0.33013	0.313569	0.288152	0.172195	0.042782	0.315748	0.250939	0.165177	0.616679	0.449513
3.0915	0.201728	0.069118	0.303913	0.358156	0.326697	0.655508	0.331196	0.315314	0.292249	0.174646	0.041953	0.319391	0.2516	0.163752	0.619111	0.450524
3.092	0.201061	0.068719	0.306023	0.357242	0.326917	0.654807	0.33222	0.317088	0.296358	0.177109	0.041152	0.323063	0.252245	0.162347	0.621473	0.45152
3.0925	0.200415	0.068332	0.308181	0.356367	0.327139	0.654055	0.333203	0.31889	0.300479	0.179583	0.040378	0.326761	0.252873	0.160963	0.623761	0.452503
3.093	0.19979	0.067957	0.310387	0.355531	0.32736	0.653251	0.334147	0.320722	0.304612	0.182068	0.03963	0.330485	0.253483	0.159601	0.625975	0.453472
3.0935	0.199185	0.067595	0.312638	0.354734	0.327583	0.652393	0.335052	0.322581	0.308753	0.184563	0.03891	0.334234	0.254075	0.158261	0.628114	0.454429
3.094	0.198601	0.067244	0.314936	0.353977	0.327805	0.65148	0.335919	0.324469	0.312904	0.187068	0.038215	0.338005	0.254649	0.156942	0.630177	0.455374
3.0945	0.198037	0.066906	0.317278	0.353258	0.328027	0.650513	0.33675	0.326385	0.317062	0.189582	0.037547	0.341798	0.255204	0.155646	0.632162	0.456309
3.095	0.197494	0.06658	0.319665	0.352577	0.32825	0.649489	0.337545	0.328328	0.321227	0.192104	0.036904	0.345611	0.25574	0.154373	0.634071	0.457234
3.0955	0.196971	0.066267	0.322094	0.351936	0.328472	0.648409	0.338305	0.330299	0.325397	0.194634	0.036286	0.349443	0.256257	0.153123	0.635902	0.45815
3.096	0.196469	0.065967	0.324567	0.351332	0.328694	0.647271	0.33903	0.332297	0.32957	0.19717	0.035693	0.353291	0.256755	0.151896	0.637655	0.459058
3.0965	0.195988	0.065679	0.32708	0.350766	0.328915	0.646077	0.339723	0.334322	0.333746	0.199713	0.035125	0.357155	0.257234	0.150691	0.639329	0.459959
3.097	0.195526	0.065404	0.329634	0.350238	0.329135	0.644824	0.340383	0.336373	0.337924	0.202261	0.03458	0.361033	0.257694	0.149511	0.640924	0.460854
3.0975	0.195085	0.065141	0.332228	0.349747	0.329353	0.643512	0.341011	0.33845	0.342101	0.204813	0.03406	0.364923	0.258136	0.148353	0.64244	0.461743
3.098	0.194663	0.064892	0.33486	0.349292	0.32957	0.642143	0.341609	0.340553	0.346277	0.207369	0.033562	0.368825	0.25856	0.14722	0.643877	0.462628
3.0985	0.194261	0.064655	0.33753	0.348873	0.329784	0.640717	0.342176	0.342681	0.350451	0.209927	0.033087	0.372737	0.258967	0.14611	0.645236	0.46351
3.099	0.193878	0.064431	0.340235	0.348488	0.329996	0.639235	0.342714	0.344834	0.354621	0.212487	0.032635	0.376657	0.259358	0.145023	0.646516	0.46439
3.0995	0.193514	0.064221	0.342975	0.348138	0.330204	0.637699	0.343223	0.347011	0.358786	0.215048	0.032205	0.380585	0.259732	0.14396	0.647718	0.46527
3.1	0.193169	0.064023	0.345748	0.34782	0.330409	0.63611	0.343705	0.349212	0.362946	0.217608	0.031796	0.384519	0.260091	0.142921	0.648844	0.466152
3.1005	0.192843	0.063838	0.348553	0.347535	0.330611	0.634472	0.344159	0.351436	0.367099	0.220166	0.031408	0.388456	0.260436	0.141906	0.649894	0.467039
3.101	0.192534	0.063665	0.351389	0.347281	0.330809	0.632785	0.344587	0.353682	0.371245	0.222721	0.03104	0.392397	0.260767	0.140914	0.650871	0.467931
3.1015	0.192242	0.063506	0.354254	0.347056	0.331004	0.631052	0.344989	0.35595	0.375382	0.225272	0.030693	0.396339	0.261084	0.139945	0.651774	0.468832
3.102	0.191967	0.063359	0.357146	0.346861	0.331195	0.629274	0.345365	0.35824	0.379511	0.227818	0.030366	0.400281	0.261388	0.139	0.652606	0.469743
3.1025	0.191709	0.063226	0.360064	0.346694	0.331383	0.627453	0.345718	0.360551	0.383631	0.230357	0.030058	0.404222	0.26168	0.138078	0.653366	0.470666
3.103	0.191466	0.063105	0.363007	0.346554	0.331568	0.625592	0.346046	0.362881	0.387741	0.232888	0.029769	0.408159	0.261959	0.137179	0.654058	0.471604
3.1035	0.191238	0.062997	0.365973	0.34644	0.33175	0.623691	0.34635	0.365231	0.39184	0.23541	0.029498	0.412092	0.262227	0.136303	0.654681	0.472559
3.104	0.191025	0.062901	0.368959	0.346351	0.331929	0.621754	0.34663	0.3676	0.395929	0.237922	0.029245	0.416019	0.262484	0.135451	0.655237	0.473533
3.1045	0.190825	0.062818	0.371965	0.346286	0.332105	0.619782	0.346888	0.369986	0.400007	0.240423	0.02901	0.419939	0.26273	0.134621	0.655727	0.474528
3.105	0.190638	0.062749	0.374989	0.346243	0.332278	0.617778	0.347123	0.37239	0.404074	0.242913	0.028792	0.42385	0.262966	0.133814	0.656154	0.475546
3.1055	0.190463	0.062691	0.37803	0.346221	0.332447	0.615744	0.347334	0.374811	0.408129	0.245392	0.02859	0.42775	0.263194	0.133031	0.65652	0.476591
3.106	0.1903	0.062646	0.381087	0.346219	0.332614	0.613683	0.347523	0.377248	0.412175	0.247857	0.028405	0.431638	0.263412	0.13227	0.656827	0.477665
3.1065	0.190147	0.062614	0.384158	0.346237	0.332777	0.611598	0.347688	0.379701	0.41621	0.25031	0.028235	0.435513	0.263623	0.131531	0.657077	0.478771
3.107	0.190003	0.062594	0.387242	0.346272	0.332936	0.609491	0.34783	0.382169	0.420236	0.252748	0.02808	0.439373	0.263827	0.130815	0.657273	0.479912
3.1075	0.189869	0.062587	0.390339	0.346325	0.333092	0.607366	0.347947	0.384651	0.424254	0.255172	0.02794	0.443216	0.264024	0.130121	0.657418	0.481092
3.108	0.189742	0.062591	0.393447	0.346394	0.333245	0.605224	0.348041	0.387148	0.428264	0.257581	0.027815	0.447041	0.264216	0.129448	0.657516	0.482313
3.1085	0.189623	0.062608	0.396564	0.346478	0.333394	0.60307	0.34811	0.389658	0.432268	0.259974	0.027703	0.450846	0.264403	0.128797	0.657567	0.483579
3.109	0.189509	0.062637	0.399691	0.346576	0.333539	0.600905	0.348153	0.392181	0.436267	0.262351	0.027604	0.454629	0.264586	0.128168	0.657577	0.484892
3.1095	0.1894	0.062677	0.402825	0.346689	0.333681	0.598733	0.34817	0.394717	0.440261	0.26471	0.027518	0.458391	0.264765	0.127559	0.657546	0.486256
3.11	0.189295	0.062729	0.405965	0.346814	0.333821	0.596555	0.34816	0.397266	0.444251	0.267051	0.027445	0.462128	0.264941	0.12697	0.657479	0.487674
3.1105	0.189193	0.062793	0.40911	0.346951	0.333957	0.594375	0.348122	0.399826	0.448237	0.269373	0.027383	0.465841	0.265115	0.126402	0.657377	0.489147
3.111	0.189093	0.062868	0.412259	0.347099	0.33409	0.592194	0.348055	0.402397	0.45222	0.271676	0.027333	0.469528	0.265286	0.125853	0.657244	0.49068
3.1115	0.188994	0.062955	0.415409	0.347256	0.334221	0.590016	0.347958	0.404979	0.456201	0.27396	0.027294	0.473188	0.265456	0.125323	0.657083	0.492275
3.112	0.188894	0.063053	0.418561	0.347422	0.334351	0.587844	0.347829	0.407572	0.460179	0.276223	0.027266	0.47682	0.265625	0.124811	0.656897	0.493935
3.1125	0.188794	0.063163	0.421712	0.347595	0.334478	0.585679	0.347668	0.410175	0.464155	0.278467	0.027248	0.480422	0.265793	0.124318	0.656689	0.495663
3.113	0.188692	0.063284	0.424861	0.347773	0.334605	0.583526	0.347473	0.412788	0.468129	0.280691	0.02724	0.483994	0.265961	0.123842	0.656462	0.49746
3.1135	0.188587	0.063416	0.428008	0.347957	0.334732	0.581385	0.347243	0.41541	0.4721	0.282894	0.027241	0.487535	0.266129	0.123384	0.65622	0.499331
3.114	0.188478	0.063559	0.43115	0.348143	0.334858	0.579259	0.346977	0.418041	0.47607	0.285078	0.027252	0.491043	0.266298	0.122942	0.655966	0.501277
3.1145	0.188365	0.063712	0.434287	0.348332	0.334985	0.577152	0.346674	0.420682	0.480038	0.287241	0.027272	0.494518	0.266467	0.122517	0.655702	0.5033
3.115	0.188247	0.063877	0.437416	0.348521	0.335112	0.575065	0.346333	0.42333	0.484002	0.289385	0.027299	0.497961	0.266638	0.122108	0.655432	0.505404
3.1155	0.188123	0.064052	0.440537	0.34871	0.335241	0.572999	0.345952	0.425987	0.487964	0.291509	0.027335	0.50137	0.26681	0.121714	0.655159	0.507589
3.116	0.187992	0.064237	0.443647	0.348897	0.33537	0.570958	0.34553	0.428652	0.491922	0.293614	0.027378	0.504747	0.266983	0.121337	0.654885	0.509859
3.1165	0.187855	0.064432	0.446744	0.34908	0.335501	0.568943	0.345067	0.431325	0.495875	0.295699	0.027429	0.508092	0.267158	0.120975	0.654613	0.512215
3.117	0.187709	0.064638	0.449828	0.349258	0.335633	0.566955	0.344561	0.434005	0.499823	0.297766	0.027486	0.511406	0.267335	0.120628	0.654345	0.514659
3.1175	0.187554	0.064854	0.452896	0.34943	0.335768	0.564997	0.344012	0.436693	0.503765	0.299813	0.02755	0.514687	0.267513	0.120297	0.654084	0.517193
3.118	0.187389	0.065079	0.455948	0.349594	0.335904	0.56307	0.343417	0.43939	0.507699	0.301842	0.027619	0.517938	0.267693	0.119982	0.653831	0.519819
3.1185	0.187215	0.065314	0.458981	0.349752	0.336043	0.561175	0.342777	0.442094	0.511625	0.303853	0.027695	0.521157	0.267875	0.119682	0.653589	0.522537
3.119	0.187029	0.065558	0.461995	0.349901	0.336184	0.559316	0.342088	0.444807	0.515542	0.305846	0.027775	0.524345	0.268058	0.119398	0.653359	0.52535
3.1195	0.186831	0.065811	0.464991	0.350044	0.336328	0.557493	0.341352	0.447528	0.519448	0.307821	0.02786	0.527502	0.268244	0.119129	0.653143	0.528257
3.12	0.186621	0.066074	0.467967	0.35018	0.336475	0.555709	0.340565	0.450257	0.523344	0.30978	0.02795	0.530628	0.26843	0.118876	0.652943	0.531262
3.1205	0.186397	0.066345	0.470924	0.35031	0.336626	0.553964	0.339726	0.452995	0.527228	0.311723	0.028043	0.533722	0.268619	0.118639	0.652761	0.534363
3.121	0.18616	0.066624	0.473861	0.350435	0.33678	0.552261	0.338835	0.455742	0.531099	0.313651	0.028141	0.536785	0.268809	0.118417	0.652598	0.537563
3.1215	0.185909	0.066912	0.476779	0.350556	0.336936	0.550601	0.33789	0.458498	0.534958	0.315564	0.028242	0.539818	0.269	0.118212	0.652457	0.540862
3.122	0.185643	0.067208	0.479677	0.350675	0.337097	0.548987	0.336889	0.461262	0.538804	0.317463	0.028346	0.542821	0.269192	0.118022	0.65234	0.54426
3.1225	0.185362	0.067513	0.482557	0.350793	0.33726	0.547421	0.335831	0.464034	0.542636	0.319349	0.028454	0.545795	0.269385	0.117848	0.652249	0.547759
3.123	0.185067	0.067825	0.485418	0.350912	0.337426	0.545903	0.334716	0.466814	0.546454	0.321223	0.028564	0.548742	0.269578	0.11769	0.652185	0.551358
3.1235	0.184757	0.068145	0.488263	0.351033	0.337595	0.544435	0.333544	0.469603	0.550257	0.323085	0.028677	0.551661	0.269772	0.117548	0.65215	0.555058
3.124	0.184432	0.068472	0.49109	0.351157	0.337767	0.54302	0.332314	0.472398	0.554044	0.324936	0.028792	0.554554	0.269965	0.117422	0.652146	0.558859
3.1245	0.184092	0.068806	0.493902	0.351285	0.337942	0.541657	0.331026	0.475201	0.557814	0.326777	0.028909	0.557421	0.270158	0.117312	0.652173	0.562761
3.125	0.183737	0.069148	0.496698	0.351419	0.338118	0.54035	0.32968	0.478011	0.561567	0.328609	0.029028	0.560263	0.27035	0.117218	0.652235	0.566763
3.1255	0.183366	0.069496	0.49948	0.351559	0.338297	0.539099	0.328277	0.480827	0.5653	0.330431	0.029149	0.563081	0.270541	0.11714	0.652331	0.570866
3.126	0.182981	0.069851	0.502246	0.351707	0.338478	0.537904	0.326816	0.483649	0.569013	0.332246	0.029271	0.565875	0.27073	0.117077	0.652464	0.57507
3.1265	0.182579	0.070213	0.504999	0.351864	0.338661	0.536768	0.325299	0.486476	0.572705	0.334053	0.029395	0.568645	0.270917	0.117031	0.652634	0.579372
3.127	0.182162	0.07058	0.507737	0.352032	0.338846	0.535691	0.323726	0.489307	0.576376	0.335854	0.029519	0.57139	0.271101	0.117	0.652844	0.583774
3.1275	0.181729	0.070954	0.510462	0.35221	0.339034	0.534674	0.322097	0.492143	0.580023	0.33765	0.029645	0.574111	0.271284	0.116985	0.653094	0.588274
3.128	0.18128	0.071334	0.513174	0.352401	0.339224	0.533718	0.320413	0.494982	0.583648	0.339441	0.029771	0.576808	0.271464	0.116985	0.653387	0.592871
3.1285	0.180817	0.07172	0.515872	0.352606	0.339416	0.532823	0.318674	0.497822	0.58725	0.341228	0.029898	0.57948	0.271642	0.117002	0.653725	0.597565
3.129	0.180338	0.072111	0.518557	0.352826	0.339612	0.531991	0.316882	0.500664	0.59083	0.343012	0.030025	0.582127	0.271817	0.117033	0.654107	0.602354
3.1295	0.179844	0.072507	0.521228	0.353062	0.33981	0.53122	0.315037	0.503507	0.594389	0.344793	0.030153	0.58475	0.271989	0.11708	0.654537	0.607237
3.13	0.179335	0.072909	0.523885	0.353314	0.34001	0.530512	0.31314	0.506349	0.597925	0.346572	0.030281	0.587348	0.272159	0.117143	0.655016	0.612213
3.1305	0.178812	0.073316	0.526527	0.353585	0.340212	0.529868	0.311192	0.50919	0.60144	0.34835	0.030409	0.589921	0.272325	0.11722	0.655544	0.617281
3.131	0.178275	0.073728	0.529155	0.353875	0.340417	0.529286	0.309193	0.512028	0.604935	0.350127	0.030538	0.59247	0.272488	0.117312	0.656123	0.622439
3.1315	0.177723	0.074144	0.531768	0.354184	0.340623	0.528769	0.307146	0.514863	0.608408	0.351905	0.030666	0.594996	0.272647	0.117418	0.656753	0.627686
3.132	0.177158	0.074565	0.534364	0.354514	0.340832	0.528314	0.305051	0.517693	0.611861	0.353682	0.030795	0.597497	0.272804	0.117539	0.657437	0.63302
3.1325	0.17658	0.07499	0.536945	0.354866	0.341043	0.527923	0.30291	0.520517	0.615293	0.355461	0.030923	0.599975	0.272957	0.117673	0.658173	0.638439
3.133	0.175988	0.075419	0.539508	0.35524	0.341256	0.527596	0.300725	0.523334	0.618705	0.357242	0.031052	0.602428	0.273108	0.117822	0.658963	0.643941
3.1335	0.175384	0.075852	0.542053	0.355637	0.341471	0.527331	0.298498	0.526144	0.622097	0.359025	0.03118	0.604857	0.273257	0.117983	0.659807	0.649524
3.134	0.174768	0.076288	0.54458	0.356057	0.34169	0.527129	0.29623	0.528945	0.62547	0.360811	0.031308	0.607262	0.273404	0.118157	0.660706	0.655185
3.1345	0.17414	0.076728	0.547087	0.356501	0.341911	0.526989	0.293924	0.531737	0.628824	0.3626	0.031436	0.609642	0.273549	0.118344	0.661659	0.660921
3.135	0.173502	0.077172	0.549573	0.35697	0.342136	0.52691	0.291582	0.534519	0.632159	0.364393	0.031563	0.612	0.273692	0.118543	0.662666	0.666731
3.1355	0.172853	0.077618	0.552036	0.357463	0.342365	0.526894	0.289206	0.53729	0.635476	0.366189	0.031691	0.614334	0.273834	0.118753	0.663727	0.67261
3.136	0.172194	0.078068	0.554477	0.357981	0.342598	0.526938	0.286798	0.54005	0.638775	0.367989	0.031818	0.616646	0.273975	0.118975	0.664842	0.678556
3.1365	0.171526	0.078521	0.556893	0.358524	0.342836	0.527042	0.28436	0.542798	0.642056	0.369793	0.031945	0.618936	0.274115	0.119207	0.66601	0.684567
3.137	0.17085	0.078976	0.559282	0.359091	0.34308	0.527206	0.281896	0.545534	0.64532	0.371601	0.032071	0.621204	0.274255	0.11945	0.667229	0.690637
3.1375	0.170165	0.079434	0.561645	0.359684	0.343329	0.527428	0.279405	0.548256	0.648566	0.373414	0.032198	0.623452	0.274394	0.119703	0.668499	0.696764
3.138	0.169472	0.079894	0.563978	0.360302	0.343586	0.527709	0.276891	0.550965	0.651795	0.375232	0.032324	0.625678	0.274532	0.119965	0.669819	0.702945
3.1385	0.168772	0.080356	0.56628	0.360945	0.343851	0.528047	0.274356	0.55366	0.655006	0.377055	0.03245	0.627883	0.274671	0.120236	0.671188	0.709175
3.139	0.168066	0.08082	0.568551	0.361613	0.344125	0.52844	0.271801	0.55634	0.658198	0.378883	0.032576	0.630067	0.274811	0.120516	0.672602	0.71545
3.1395	0.167354	0.081286	0.570787	0.362306	0.344408	0.528889	0.269228	0.559005	0.661373	0.380718	0.032702	0.63223	0.27495	0.120804	0.674062	0.721767
3.14	0.166636	0.081753	0.572988	0.363023	0.344701	0.52939	0.266639	0.561656	0.664528	0.382559	0.032827	0.63437	0.275091	0.1211	0.675565	0.728122
3.1405	0.165914	0.082222	0.575151	0.363766	0.345004	0.529944	0.264035	0.564291	0.667664	0.384406	0.032953	0.636489	0.275232	0.121403	0.677109	0.734509
3.141	0.165187	0.082691	0.577274	0.364532	0.345319	0.530548	0.261418	0.566912	0.67078	0.386261	0.033078	0.638584	0.275375	0.121713	0.678691	0.740926
3.1415	0.164458	0.083162	0.579356	0.365323	0.345647	0.5312	0.258789	0.569519	0.673875	0.388124	0.033204	0.640657	0.27552	0.12203	0.68031	0.747367
3.142	0.163726	0.083632	0.581397	0.366138	0.345987	0.5319	0.25615	0.572111	0.676948	0.389994	0.033329	0.642706	0.275668	0.122352	0.681962	0.753827
3.1425	0.162992	0.084103	0.583394	0.366978	0.34634	0.532646	0.253502	0.574689	0.679999	0.391872	0.033454	0.644732	0.275818	0.122681	0.683646	0.760302
3.143	0.162258	0.084574	0.585348	0.367843	0.346709	0.533436	0.250846	0.577252	0.683025	0.393758	0.033579	0.646734	0.27597	0.123014	0.685357	0.766787
3.1435	0.161523	0.085045	0.587257	0.368732	0.347092	0.534269	0.248184	0.579801	0.686026	0.395653	0.033703	0.648713	0.276126	0.123353	0.687093	0.773276
3.144	0.160788	0.085515	0.589121	0.369647	0.347491	0.535142	0.245517	0.582336	0.689	0.397557	0.033828	0.650669	0.276286	0.123696	0.688852	0.779764
3.1445	0.160055	0.085985	0.590939	0.370589	0.347906	0.536055	0.242847	0.584857	0.691946	0.399469	0.033953	0.652603	0.276449	0.124044	0.690629	0.786245
3.145	0.159323	0.086454	0.592711	0.371556	0.348338	0.537005	0.240173	0.587363	0.694862	0.40139	0.034077	0.654514	0.276617	0.124395	0.692421	0.792715
3.1455	0.158593	0.086922	0.594435	0.37255	0.348788	0.53799	0.237498	0.589854	0.697745	0.403321	0.034201	0.656403	0.276789	0.124749	0.694226	0.799167
3.146	0.157865	0.087389	0.596113	0.373572	0.349255	0.539008	0.234822	0.59233	0.700595	0.40526	0.034325	0.65827	0.276966	0.125106	0.696039	0.805595
3.1465	0.157141	0.087856	0.597744	0.374621	0.349742	0.540057	0.232147	0.594791	0.703409	0.407208	0.034449	0.660116	0.277149	0.125466	0.697859	0.811995
3.147	0.15642	0.088322	0.599329	0.375698	0.350246	0.541134	0.229473	0.597237	0.706184	0.409164	0.034573	0.661939	0.277338	0.125828	0.69968	0.818361
3.1475	0.155703	0.088786	0.600866	0.376804	0.35077	0.542237	0.226803	0.599666	0.708919	0.411129	0.034696	0.663742	0.277533	0.126192	0.7015	0.824686
3.148	0.154991	0.08925	0.602357	0.37794	0.351312	0.543365	0.224135	0.602079	0.71161	0.413102	0.034819	0.665522	0.277735	0.126557	0.703315	0.830966
3.1485	0.154283	0.089713	0.6038	0.379105	0.351874	0.544515	0.221472	0.604474	0.714256	0.415083	0.034942	0.667281	0.277944	0.126923	0.705122	0.837196
3.149	0.15358	0.090174	0.605195	0.380302	0.352454	0.545685	0.218815	0.606852	0.716853	0.417071	0.035065	0.669018	0.27816	0.127289	0.706915	0.84337
3.1495	0.152883	0.090634	0.606543	0.38153	0.353054	0.546874	0.216163	0.609212	0.719398	0.419066	0.035187	0.670733	0.278384	0.127657	0.708692	0.849482
3.15	0.152192	0.091092	0.607842	0.382791	0.353673	0.548081	0.213518	0.611553	0.72189	0.421069	0.035309	0.672426	0.278616	0.128024	0.710449	0.855529
3.1505	0.151507	0.091548	0.609094	0.384086	0.35431	0.549303	0.210881	0.613873	0.724325	0.42308	0.03543	0.674096	0.278858	0.128391	0.712183	0.861505
3.151	0.150828	0.092003	0.610298	0.385415	0.354967	0.550538	0.208253	0.616172	0.726702	0.425099	0.035551	0.675744	0.279109	0.128758	0.713889	0.867404
3.1515	0.150157	0.092455	0.611454	0.38678	0.355641	0.551785	0.205634	0.618449	0.729017	0.427126	0.035671	0.677369	0.279371	0.129124	0.715564	0.873221
3.152	0.149493	0.092905	0.612562	0.388181	0.356334	0.553042	0.203025	0.620703	0.73127	0.429163	0.03579	0.67897	0.279643	0.129488	0.717206	0.87895
3.1525	0.148836	0.093352	0.613623	0.38962	0.357045	0.554306	0.200427	0.622931	0.733457	0.431211	0.035909	0.680548	0.279926	0.129851	0.718811	0.884588
3.153	0.148188	0.093797	0.614637	0.391096	0.357773	0.555577	0.197841	0.625133	0.735575	0.433271	0.036027	0.682102	0.28022	0.130211	0.720376	0.890128
3.1535	0.147547	0.094239	0.615604	0.392612	0.358518	0.556851	0.195267	0.627307	0.737622	0.435345	0.036144	0.683632	0.280527	0.130569	0.721898	0.895565
3.154	0.146915	0.094678	0.616525	0.394167	0.35928	0.558127	0.192707	0.629451	0.739596	0.437433	0.03626	0.685138	0.280847	0.130925	0.723372	0.900897
3.1545	0.146292	0.095114	0.6174	0.395762	0.360057	0.559404	0.19016	0.631563	0.741493	0.439536	0.036375	0.68662	0.28118	0.131278	0.724797	0.906117
3.155	0.145678	0.095546	0.618231	0.397399	0.360851	0.560679	0.187628	0.633641	0.743312	0.441656	0.036489	0.688077	0.281528	0.131628	0.726168	0.911222
3.1555	0.145072	0.095975	0.619017	0.399077	0.361661	0.561951	0.185111	0.635684	0.74505	0.443794	0.036601	0.689511	0.281891	0.131974	0.727482	0.916208
3.156	0.144476	0.096399	0.61976	0.400797	0.362485	0.563218	0.182611	0.63769	0.746703	0.445951	0.036712	0.690921	0.282271	0.132317	0.728737	0.921073
3.1565	0.14389	0.09682	0.620461	0.402559	0.363324	0.56448	0.180127	0.639658	0.748271	0.448127	0.036822	0.692306	0.282667	0.132657	0.729931	0.925811
3.157	0.143312	0.097236	0.621121	0.404363	0.364177	0.565735	0.17766	0.641586	0.749751	0.450325	0.03693	0.693667	0.283081	0.132993	0.73106	0.930422
3.1575	0.142744	0.097648	0.62174	0.40621	0.365044	0.56698	0.175212	0.643476	0.75114	0.452546	0.037037	0.695003	0.283514	0.133325	0.732125	0.934901
3.158	0.142186	0.098055	0.62232	0.408099	0.365925	0.568216	0.172781	0.645325	0.752437	0.45479	0.037142	0.696313	0.283965	0.133653	0.733122	0.939246
3.1585	0.141637	0.098457	0.62286	0.41003	0.366818	0.569439	0.17037	0.647135	0.753641	0.45706	0.037245	0.697596	0.284435	0.133978	0.734051	0.943456
3.159	0.141097	0.098854	0.623362	0.412003	0.367725	0.570649	0.167978	0.648905	0.75475	0.459356	0.037347	0.698852	0.284926	0.134298	0.734911	0.947526
3.1595	0.140568	0.099246	0.623826	0.414018	0.368643	0.571843	0.165606	0.650633	0.755762	0.461679	0.037447	0.70008	0.285437	0.134614	0.7357	0.951455
3.16	0.140047	0.099633	0.624253	0.416074	0.369574	0.573021	0.163254	0.652322	0.756678	0.464031	0.037545	0.701278	0.285969	0.134927	0.736417	0.955239
3.1605	0.139536	0.100014	0.624644	0.418171	0.370516	0.574179	0.160922	0.653969	0.757496	0.466413	0.037641	0.702447	0.286521	0.135236	0.73706	0.958877
3.161	0.139035	0.100389	0.625	0.420308	0.371469	0.575317	0.158612	0.655577	0.758214	0.468824	0.037735	0.703585	0.287095	0.135541	0.737628	0.962365
3.1615	0.138542	0.100758	0.625323	0.422486	0.372433	0.576433	0.156322	0.657144	0.758831	0.471266	0.037826	0.704691	0.287691	0.135843	0.738119	0.965702
3.162	0.138059	0.101121	0.625612	0.424702	0.373408	0.577525	0.154055	0.658672	0.759347	0.47374	0.037916	0.705765	0.288308	0.136142	0.738532	0.968887
3.1625	0.137585	0.101477	0.62587	0.426958	0.374392	0.578589	0.151809	0.660163	0.759758	0.476246	0.038004	0.706807	0.288946	0.136437	0.738864	0.971917
3.163	0.137119	0.101826	0.626097	0.429252	0.375387	0.579626	0.149587	0.661616	0.760065	0.478784	0.038089	0.707816	0.289606	0.136729	0.739114	0.974793
3.1635	0.136663	0.102168	0.626294	0.431584	0.376391	0.580632	0.147386	0.663033	0.760266	0.481355	0.038172	0.708792	0.290288	0.137018	0.739282	0.977512
3.164	0.136215	0.102503	0.626461	0.433953	0.377403	0.581605	0.14521	0.664415	0.760359	0.483961	0.038252	0.709734	0.290991	0.137304	0.739367	0.980076
3.1645	0.135776	0.102831	0.626599	0.436358	0.378423	0.582543	0.143056	0.665762	0.760344	0.4866	0.03833	0.710643	0.291715	0.137587	0.739367	0.982484
3.165	0.135345	0.103151	0.626709	0.438799	0.379452	0.583446	0.140927	0.667076	0.76022	0.489275	0.038405	0.711517	0.292461	0.137869	0.739284	0.984736
3.1655	0.134923	0.103463	0.626791	0.441275	0.380487	0.584309	0.138822	0.668357	0.759987	0.491985	0.038478	0.712356	0.293228	0.138148	0.739117	0.986832
3.166	0.134509	0.103767	0.626846	0.443785	0.381529	0.585133	0.136742	0.669605	0.759646	0.49473	0.038549	0.713161	0.294016	0.138425	0.738866	0.988774
3.1665	0.134104	0.104064	0.626874	0.446327	0.382577	0.585914	0.134687	0.67082	0.759198	0.497511	0.038617	0.71393	0.294824	0.1387	0.738533	0.990561
3.167	0.133705	0.104352	0.626877	0.448902	0.383631	0.586652	0.132657	0.672004	0.758643	0.500328	0.038682	0.714664	0.295652	0.138974	0.738116	0.992194
3.1675	0.133315	0.104632	0.626855	0.451507	0.38469	0.587344	0.130653	0.673155	0.757984	0.503182	0.038744	0.715362	0.2965	0.139246	0.737617	0.993673
3.168	0.132932	0.104903	0.626807	0.454143	0.385754	0.587989	0.128675	0.674274	0.757222	0.506073	0.038804	0.716025	0.297367	0.139517	0.737035	0.994998
3.1685	0.132555	0.105166	0.626735	0.456807	0.386822	0.588585	0.126723	0.675361	0.756358	0.509	0.038861	0.716651	0.298253	0.139786	0.736371	0.996169
3.169	0.132185	0.10542	0.626639	0.4595	0.387893	0.589129	0.124797	0.676418	0.755393	0.511965	0.038916	0.717241	0.299157	0.140054	0.735625	0.997186
3.1695	0.131822	0.105665	0.626519	0.46222	0.388967	0.58962	0.122899	0.677445	0.75433	0.514967	0.038967	0.717792	0.300078	0.14032	0.734796	0.998051
3.17	0.131464	0.1059	0.626374	0.464966	0.390042	0.590054	0.121027	0.678442	0.75317	0.518006	0.039016	0.718304	0.301016	0.140585	0.733885	0.998764
3.1705	0.131111	0.106126	0.626205	0.467737	0.391119	0.59043	0.119182	0.679411	0.751913	0.521081	0.039062	0.718776	0.30197	0.140849	0.732891	0.999327
3.171	0.130764	0.106343	0.626011	0.470531	0.392195	0.590745	0.117364	0.680352	0.750561	0.524194	0.039105	0.719208	0.302939	0.141112	0.731814	0.999742
3.1715	0.130421	0.10655	0.625792	0.473348	0.393271	0.590998	0.115574	0.681266	0.749117	0.527343	0.039145	0.719597	0.303923	0.141375	0.730654	1.000012
3.172	0.130082	0.106746	0.625549	0.476184	0.394345	0.591186	0.113811	0.682154	0.747581	0.530527	0.039182	0.719942	0.304921	0.141636	0.72941	1.000139
3.1725	0.129747	0.106933	0.62528	0.47904	0.395416	0.591308	0.112075	0.683016	0.745956	0.533747	0.039216	0.720243	0.305932	0.141898	0.728085	1.000127
3.173	0.129415	0.107109	0.624985	0.481913	0.396484	0.591363	0.110367	0.683853	0.744245	0.537001	0.039247	0.720498	0.306956	0.142159	0.726677	0.999979
3.1735	0.129085	0.107275	0.624664	0.484803	0.397546	0.591349	0.108687	0.684666	0.742449	0.540288	0.039275	0.720704	0.307991	0.142419	0.725189	0.999698
3.174	0.128757	0.10743	0.624318	0.487706	0.398603	0.591265	0.107034	0.685457	0.740571	0.543608	0.0393	0.720861	0.309036	0.14268	0.723622	0.999286
3.1745	0.128431	0.107575	0.623944	0.490623	0.399652	0.59111	0.105409	0.686226	0.738615	0.546959	0.039322	0.720967	0.310091	0.142941	0.721976	0.998746
3.175	0.128105	0.10771	0.623545	0.49355	0.400691	0.590885	0.103811	0.686977	0.736582	0.550341	0.03934	0.721021	0.311155	0.143201	0.720255	0.998081
3.1755	0.127779	0.107833	0.623119	0.496487	0.401721	0.590587	0.102241	0.68771	0.734475	0.553751	0.039356	0.721021	0.312226	0.143463	0.718458	0.997293
3.176	0.127454	0.107947	0.622666	0.499433	0.402738	0.590216	0.100698	0.688427	0.732299	0.557189	0.039369	0.720966	0.313304	0.143724	0.716587	0.996385
3.1765	0.127127	0.108049	0.622187	0.502385	0.403743	0.589773	0.099182	0.689129	0.730054	0.560654	0.039379	0.720855	0.314386	0.143986	0.714645	0.99536
3.177	0.126799	0.108141	0.621681	0.505344	0.404733	0.589256	0.097694	0.689818	0.727744	0.564145	0.039386	0.720687	0.315472	0.144249	0.712631	0.99422
3.1775	0.12647	0.108221	0.62115	0.508309	0.405708	0.588663	0.096232	0.690494	0.725372	0.567659	0.03939	0.72046	0.316561	0.144512	0.710546	0.992968
3.178	0.126139	0.108291	0.620592	0.511279	0.406668	0.587995	0.094797	0.691158	0.722939	0.571196	0.03939	0.720174	0.317651	0.144775	0.708392	0.991609
3.1785	0.125807	0.108349	0.620011	0.514254	0.40761	0.587249	0.093389	0.691813	0.720448	0.574754	0.039388	0.719828	0.318741	0.14504	0.70617	0.990144
3.179	0.125473	0.108396	0.619405	0.517231	0.408535	0.586424	0.092007	0.692457	0.717901	0.578331	0.039383	0.719422	0.31983	0.145305	0.703879	0.988578
3.1795	0.125136	0.108431	0.618777	0.520212	0.409441	0.585519	0.090652	0.693094	0.715299	0.581926	0.039375	0.718955	0.320917	0.14557	0.701522	0.986915
3.18	0.124798	0.108455	0.618126	0.523194	0.410327	0.584533	0.089323	0.693724	0.712645	0.585536	0.039364	0.718428	0.322	0.145836	0.699098	0.985157
3.1805	0.124457	0.108468	0.617454	0.526176	0.411192	0.583466	0.08802	0.694349	0.70994	0.589161	0.039351	0.717841	0.323078	0.146103	0.69661	0.983309
3.181	0.124113	0.108468	0.616762	0.529157	0.412036	0.582317	0.086742	0.694971	0.707186	0.592798	0.039334	0.717193	0.32415	0.14637	0.694058	0.981375
3.1815	0.123767	0.108457	0.61605	0.532136	0.412857	0.581087	0.085491	0.695593	0.704384	0.596445	0.039315	0.716485	0.325214	0.146637	0.691444	0.979357
