datacolumns 17
datarows 1123
time	addmag_r	bicfemlh_r	gaslat_r	gasmed_r	gmax_r	gmed_r	gra_r	perlong_r	recfem_r	sar_r	semimem_r	sol_r	tfl_r	tibant_r	vaslat_r	vasmed_r
3.346	0.071823	0.063052	0.007958	0.020541	0.029353	0.092355	0.060033	0.006742	0.002291	0.008077	0.100521	0.003605	0.002836	0.013833	0.00287	0.002106
3.3465	0.071709	0.06305	0.008011	0.020797	0.029291	0.092756	0.060442	0.006773	0.00229	0.007989	0.100532	0.003685	0.002859	0.013695	0.002886	0.002108
3.347	0.071603	0.063051	0.008065	0.021055	0.029222	0.093156	0.060848	0.006804	0.002289	0.007903	0.100544	0.003767	0.002882	0.01356	0.002902	0.00211
3.3475	0.071506	0.063057	0.00812	0.021316	0.029147	0.093556	0.06125	0.006836	0.002288	0.007819	0.100558	0.003852	0.002905	0.013426	0.002918	0.002113
3.348	0.071416	0.063067	0.008177	0.02158	0.029066	0.093956	0.061646	0.006868	0.002287	0.007737	0.100573	0.003939	0.002929	0.013293	0.002935	0.002115
3.3485	0.071335	0.063081	0.008235	0.021847	0.028979	0.094355	0.062036	0.006901	0.002286	0.007658	0.100591	0.004028	0.002954	0.013163	0.002952	0.002118
3.349	0.07126	0.0631	0.008295	0.022117	0.028886	0.094754	0.06242	0.006934	0.002285	0.007582	0.10061	0.00412	0.002978	0.013034	0.002969	0.002121
3.3495	0.071194	0.063122	0.008356	0.02239	0.028787	0.095153	0.062796	0.006967	0.002284	0.007507	0.100631	0.004214	0.003003	0.012907	0.002986	0.002124
3.35	0.071134	0.063148	0.008419	0.022665	0.028682	0.09555	0.063164	0.007001	0.002284	0.007435	0.100653	0.004311	0.003029	0.012782	0.003004	0.002127
3.3505	0.071081	0.063179	0.008484	0.022944	0.028572	0.095946	0.063523	0.007036	0.002283	0.007365	0.100678	0.00441	0.003054	0.012658	0.003022	0.00213
3.351	0.071034	0.063214	0.00855	0.023226	0.028457	0.096341	0.063872	0.00707	0.002282	0.007297	0.100704	0.004512	0.00308	0.012535	0.00304	0.002134
3.3515	0.070994	0.063253	0.008617	0.023512	0.028336	0.096734	0.06421	0.007106	0.002281	0.007231	0.100732	0.004617	0.003107	0.012415	0.003058	0.002137
3.352	0.07096	0.063297	0.008686	0.0238	0.02821	0.097126	0.064537	0.007141	0.002281	0.007168	0.100763	0.004724	0.003133	0.012295	0.003077	0.002141
3.3525	0.070932	0.063344	0.008757	0.024091	0.028079	0.097516	0.064851	0.007177	0.00228	0.007106	0.100795	0.004834	0.00316	0.012177	0.003095	0.002145
3.353	0.070909	0.063397	0.008829	0.024386	0.027943	0.097903	0.065153	0.007214	0.002279	0.007046	0.100828	0.004946	0.003186	0.012061	0.003114	0.002149
3.3535	0.07089	0.063453	0.008903	0.024684	0.027802	0.098288	0.065441	0.00725	0.002278	0.006988	0.100864	0.005061	0.003213	0.011946	0.003133	0.002153
3.354	0.070877	0.063514	0.008979	0.024985	0.027657	0.09867	0.065715	0.007287	0.002278	0.006932	0.100901	0.005179	0.003241	0.011833	0.003152	0.002157
3.3545	0.070868	0.063579	0.009056	0.025289	0.027507	0.09905	0.065975	0.007325	0.002277	0.006878	0.10094	0.0053	0.003268	0.01172	0.003171	0.002161
3.355	0.070862	0.063649	0.009134	0.025596	0.027353	0.099426	0.066219	0.007363	0.002276	0.006825	0.10098	0.005423	0.003296	0.01161	0.00319	0.002165
3.3555	0.07086	0.063724	0.009215	0.025907	0.027195	0.099798	0.066447	0.007401	0.002276	0.006774	0.101022	0.005549	0.003323	0.0115	0.00321	0.002169
3.356	0.070861	0.063802	0.009296	0.02622	0.027034	0.100166	0.066659	0.00744	0.002275	0.006725	0.101065	0.005678	0.003351	0.011392	0.003229	0.002173
3.3565	0.070865	0.063885	0.00938	0.026537	0.026868	0.10053	0.066854	0.007479	0.002274	0.006677	0.10111	0.00581	0.003378	0.011286	0.003249	0.002178
3.357	0.070872	0.063973	0.009465	0.026857	0.026699	0.10089	0.067031	0.007519	0.002274	0.006631	0.101155	0.005944	0.003406	0.01118	0.003268	0.002182
3.3575	0.07088	0.064065	0.009551	0.027179	0.026526	0.101244	0.067191	0.007558	0.002273	0.006586	0.101201	0.006082	0.003434	0.011076	0.003288	0.002186
3.358	0.07089	0.064161	0.009639	0.027505	0.02635	0.101594	0.067332	0.007599	0.002272	0.006543	0.101248	0.006222	0.003462	0.010973	0.003307	0.002191
3.3585	0.070901	0.064262	0.009729	0.027834	0.026171	0.101938	0.067455	0.007639	0.002272	0.006501	0.101296	0.006365	0.003489	0.010871	0.003327	0.002195
3.359	0.070914	0.064366	0.00982	0.028165	0.025989	0.102277	0.067559	0.00768	0.002271	0.00646	0.101343	0.006511	0.003517	0.010771	0.003347	0.002199
3.3595	0.070927	0.064475	0.009912	0.028499	0.025804	0.10261	0.067644	0.007721	0.00227	0.006421	0.101391	0.00666	0.003545	0.010672	0.003366	0.002204
3.36	0.070941	0.064587	0.010006	0.028836	0.025617	0.102938	0.06771	0.007763	0.00227	0.006382	0.101439	0.006812	0.003572	0.010574	0.003386	0.002208
3.3605	0.070955	0.064704	0.010101	0.029176	0.025426	0.103261	0.067757	0.007805	0.002269	0.006345	0.101486	0.006967	0.003599	0.010477	0.003405	0.002213
3.361	0.070969	0.064824	0.010198	0.029518	0.025233	0.103577	0.067784	0.007847	0.002269	0.006309	0.101533	0.007124	0.003627	0.010381	0.003425	0.002217
3.3615	0.070982	0.064947	0.010296	0.029863	0.025038	0.103888	0.067793	0.007889	0.002268	0.006273	0.101579	0.007285	0.003654	0.010286	0.003444	0.002221
3.362	0.070995	0.065074	0.010395	0.030209	0.02484	0.104193	0.067782	0.007932	0.002268	0.006239	0.101624	0.007448	0.003681	0.010193	0.003463	0.002225
3.3625	0.071007	0.065204	0.010495	0.030558	0.02464	0.104492	0.067752	0.007975	0.002267	0.006205	0.101668	0.007615	0.003707	0.0101	0.003482	0.002229
3.363	0.071018	0.065338	0.010597	0.03091	0.024438	0.104785	0.067703	0.008018	0.002267	0.006172	0.101711	0.007784	0.003734	0.010009	0.003501	0.002233
3.3635	0.071027	0.065474	0.0107	0.031263	0.024234	0.105071	0.067635	0.008062	0.002266	0.00614	0.101751	0.007956	0.003761	0.009918	0.00352	0.002237
3.364	0.071035	0.065613	0.010804	0.031618	0.024028	0.105352	0.067548	0.008106	0.002266	0.006109	0.10179	0.008131	0.003787	0.009829	0.003538	0.002241
3.3645	0.071041	0.065754	0.010909	0.031974	0.023819	0.105626	0.067442	0.00815	0.002266	0.006077	0.101828	0.008309	0.003813	0.009741	0.003557	0.002245
3.365	0.071046	0.065898	0.011015	0.032332	0.02361	0.105895	0.067317	0.008194	0.002265	0.006047	0.101863	0.00849	0.003839	0.009654	0.003575	0.002249
3.3655	0.07105	0.066045	0.011123	0.032691	0.023398	0.106157	0.067173	0.008239	0.002265	0.006017	0.101897	0.008674	0.003865	0.009568	0.003593	0.002252
3.366	0.071051	0.066193	0.011231	0.033052	0.023185	0.106415	0.067009	0.008284	0.002264	0.005987	0.101929	0.008861	0.003891	0.009483	0.003611	0.002256
3.3665	0.071052	0.066344	0.01134	0.033414	0.02297	0.106667	0.066827	0.008329	0.002264	0.005957	0.101959	0.00905	0.003916	0.009399	0.003628	0.002259
3.367	0.071051	0.066496	0.01145	0.033776	0.022754	0.106915	0.066626	0.008374	0.002264	0.005928	0.101989	0.009243	0.003942	0.009315	0.003646	0.002262
3.3675	0.071048	0.06665	0.011561	0.034139	0.022537	0.107158	0.066407	0.00842	0.002263	0.005899	0.102017	0.009438	0.003967	0.009233	0.003663	0.002265
3.368	0.071044	0.066805	0.011673	0.034502	0.022318	0.107397	0.066168	0.008466	0.002263	0.00587	0.102044	0.009636	0.003992	0.009152	0.00368	0.002268
3.3685	0.071039	0.066962	0.011785	0.034866	0.022099	0.107633	0.065912	0.008512	0.002263	0.005841	0.102071	0.009837	0.004017	0.009072	0.003697	0.002271
3.369	0.071032	0.06712	0.011898	0.035229	0.021878	0.107865	0.065637	0.008559	0.002263	0.005812	0.102097	0.01004	0.004042	0.008993	0.003713	0.002273
3.3695	0.071025	0.06728	0.012012	0.035593	0.021656	0.108094	0.065345	0.008606	0.002263	0.005783	0.102123	0.010247	0.004067	0.008915	0.003729	0.002275
3.37	0.071016	0.06744	0.012126	0.035956	0.021434	0.10832	0.065036	0.008653	0.002263	0.005755	0.10215	0.010456	0.004091	0.008838	0.003745	0.002278
3.3705	0.071006	0.067601	0.012241	0.036318	0.021211	0.108543	0.064709	0.0087	0.002263	0.005726	0.102176	0.010668	0.004116	0.008761	0.003761	0.00228
3.371	0.070995	0.067763	0.012356	0.03668	0.020987	0.108763	0.064366	0.008748	0.002263	0.005697	0.102203	0.010882	0.004141	0.008686	0.003776	0.002282
3.3715	0.070983	0.067926	0.012471	0.037041	0.020763	0.108981	0.064007	0.008797	0.002263	0.005669	0.102231	0.0111	0.004165	0.008611	0.003792	0.002283
3.372	0.07097	0.06809	0.012587	0.0374	0.020539	0.109197	0.063633	0.008845	0.002263	0.00564	0.10226	0.01132	0.00419	0.008538	0.003807	0.002285
3.3725	0.070956	0.068254	0.012703	0.037758	0.020314	0.109411	0.063243	0.008895	0.002263	0.005611	0.10229	0.011543	0.004215	0.008465	0.003822	0.002287
3.373	0.07094	0.068419	0.012819	0.038115	0.02009	0.109623	0.062839	0.008944	0.002264	0.005582	0.102321	0.011768	0.004239	0.008393	0.003837	0.002288
3.3735	0.070924	0.068585	0.012935	0.03847	0.019865	0.109834	0.062421	0.008994	0.002264	0.005552	0.102353	0.011996	0.004264	0.008322	0.003851	0.002289
3.374	0.070906	0.068751	0.013051	0.038823	0.01964	0.110044	0.061988	0.009044	0.002265	0.005523	0.102386	0.012227	0.004289	0.008251	0.003865	0.00229
3.3745	0.070887	0.068917	0.013167	0.039173	0.019416	0.110253	0.061543	0.009095	0.002265	0.005493	0.10242	0.01246	0.004314	0.008182	0.00388	0.002291
3.375	0.070867	0.069083	0.013282	0.039521	0.019192	0.110461	0.061085	0.009147	0.002266	0.005463	0.102456	0.012696	0.004338	0.008113	0.003894	0.002292
3.3755	0.070845	0.06925	0.013398	0.039866	0.018968	0.110668	0.060614	0.009198	0.002266	0.005433	0.102493	0.012934	0.004363	0.008045	0.003907	0.002292
3.376	0.070822	0.069417	0.013512	0.040209	0.018745	0.110875	0.060131	0.00925	0.002267	0.005402	0.102531	0.013175	0.004389	0.007978	0.003921	0.002293
3.3765	0.070798	0.069583	0.013627	0.040547	0.018523	0.111082	0.059637	0.009303	0.002268	0.005371	0.10257	0.013419	0.004414	0.007911	0.003935	0.002293
3.377	0.070772	0.06975	0.013741	0.040883	0.018301	0.111288	0.059132	0.009356	0.002269	0.005341	0.102611	0.013665	0.004439	0.007845	0.003948	0.002293
3.3775	0.070744	0.069916	0.013854	0.041214	0.018081	0.111493	0.058616	0.00941	0.00227	0.005309	0.102653	0.013913	0.004464	0.00778	0.003961	0.002293
3.378	0.070714	0.070082	0.013966	0.041542	0.017861	0.111699	0.058089	0.009464	0.002271	0.005278	0.102697	0.014165	0.00449	0.007715	0.003974	0.002293
3.3785	0.070683	0.070247	0.014078	0.041865	0.017643	0.111904	0.057553	0.009518	0.002272	0.005247	0.102742	0.014419	0.004516	0.007651	0.003987	0.002293
3.379	0.070649	0.070412	0.014189	0.042184	0.017425	0.112108	0.057007	0.009574	0.002273	0.005215	0.102788	0.014675	0.004542	0.007588	0.004	0.002292
3.3795	0.070612	0.070576	0.014299	0.042497	0.017209	0.112313	0.056452	0.009629	0.002274	0.005183	0.102835	0.014934	0.004568	0.007525	0.004013	0.002292
3.38	0.070573	0.070739	0.014408	0.042807	0.016995	0.112517	0.055888	0.009685	0.002276	0.005151	0.102883	0.015196	0.004594	0.007463	0.004026	0.002291
3.3805	0.070531	0.0709	0.014516	0.043111	0.016782	0.112721	0.055317	0.009742	0.002277	0.005119	0.102932	0.01546	0.004621	0.007401	0.004039	0.00229
3.381	0.070487	0.071061	0.014623	0.04341	0.016571	0.112924	0.054737	0.009799	0.002279	0.005087	0.102982	0.015727	0.004647	0.00734	0.004051	0.002289
3.3815	0.070439	0.071219	0.014729	0.043705	0.016361	0.113127	0.054151	0.009856	0.00228	0.005055	0.103033	0.015997	0.004674	0.00728	0.004064	0.002288
3.382	0.070388	0.071376	0.014833	0.043995	0.016153	0.11333	0.053557	0.009914	0.002282	0.005023	0.103084	0.01627	0.004701	0.00722	0.004076	0.002286
3.3825	0.070333	0.071531	0.014937	0.04428	0.015947	0.113532	0.052957	0.009972	0.002284	0.00499	0.103136	0.016545	0.004728	0.00716	0.004088	0.002285
3.383	0.070275	0.071683	0.015039	0.04456	0.015743	0.113734	0.052351	0.010031	0.002286	0.004958	0.103188	0.016823	0.004756	0.007101	0.0041	0.002283
3.3835	0.070212	0.071833	0.01514	0.044836	0.015541	0.113935	0.05174	0.010091	0.002288	0.004925	0.10324	0.017104	0.004784	0.007043	0.004113	0.002281
3.384	0.070146	0.07198	0.01524	0.045108	0.01534	0.114135	0.051124	0.01015	0.00229	0.004893	0.103292	0.017388	0.004811	0.006984	0.004125	0.00228
3.3845	0.070076	0.072123	0.015339	0.045375	0.015142	0.114333	0.050503	0.010211	0.002292	0.00486	0.103344	0.017674	0.00484	0.006927	0.004137	0.002277
3.385	0.07	0.072263	0.015436	0.045638	0.014947	0.114531	0.049877	0.010271	0.002295	0.004827	0.103396	0.017964	0.004868	0.006869	0.004148	0.002275
3.3855	0.069921	0.0724	0.015531	0.045896	0.014753	0.114727	0.049248	0.010332	0.002297	0.004795	0.103447	0.018256	0.004896	0.006813	0.00416	0.002273
3.386	0.069836	0.072532	0.015626	0.046151	0.014562	0.114921	0.048616	0.010394	0.0023	0.004762	0.103498	0.018551	0.004925	0.006756	0.004172	0.002271
3.3865	0.069746	0.072659	0.015718	0.046402	0.014373	0.115113	0.047981	0.010456	0.002303	0.00473	0.103547	0.018849	0.004954	0.0067	0.004184	0.002268
3.387	0.069652	0.072782	0.015809	0.046649	0.014186	0.115303	0.047343	0.010518	0.002306	0.004698	0.103595	0.01915	0.004983	0.006644	0.004195	0.002265
3.3875	0.069552	0.072899	0.015899	0.046893	0.014002	0.11549	0.046703	0.01058	0.002309	0.004666	0.103642	0.019454	0.005013	0.006589	0.004207	0.002263
3.388	0.069446	0.073011	0.015987	0.047134	0.01382	0.115675	0.046061	0.010643	0.002312	0.004633	0.103687	0.01976	0.005042	0.006534	0.004219	0.00226
3.3885	0.069336	0.073117	0.016073	0.047371	0.01364	0.115857	0.045417	0.010706	0.002315	0.004602	0.103731	0.02007	0.005072	0.006479	0.00423	0.002257
3.389	0.06922	0.073216	0.016157	0.047606	0.013463	0.116037	0.044773	0.010769	0.002319	0.00457	0.103772	0.020382	0.005102	0.006424	0.004241	0.002253
3.3895	0.069098	0.073309	0.01624	0.047838	0.013289	0.116213	0.044127	0.010833	0.002322	0.004538	0.103811	0.020697	0.005132	0.00637	0.004253	0.00225
3.39	0.06897	0.073394	0.016321	0.048068	0.013117	0.116385	0.043481	0.010897	0.002326	0.004507	0.103848	0.021014	0.005163	0.006316	0.004264	0.002247
3.3905	0.068837	0.073472	0.016399	0.048296	0.012948	0.116555	0.042835	0.010961	0.00233	0.004476	0.103883	0.021334	0.005193	0.006262	0.004275	0.002243
3.391	0.068697	0.073542	0.016476	0.048522	0.012781	0.11672	0.042188	0.011025	0.002334	0.004445	0.103914	0.021657	0.005223	0.006209	0.004286	0.002239
3.3915	0.068552	0.073604	0.01655	0.048747	0.012616	0.116882	0.041542	0.011089	0.002338	0.004414	0.103943	0.021982	0.005254	0.006156	0.004297	0.002236
3.392	0.0684	0.073657	0.016622	0.04897	0.012455	0.11704	0.040897	0.011153	0.002342	0.004384	0.103967	0.022309	0.005285	0.006102	0.004308	0.002232
3.3925	0.068241	0.073702	0.016692	0.049193	0.012296	0.117194	0.040252	0.011217	0.002347	0.004354	0.103988	0.022639	0.005316	0.006049	0.004319	0.002227
3.393	0.068076	0.073738	0.016759	0.049415	0.012139	0.117344	0.039609	0.011282	0.002351	0.004324	0.104005	0.022972	0.005347	0.005996	0.004329	0.002223
3.3935	0.067904	0.073765	0.016824	0.049636	0.011985	0.11749	0.038967	0.011346	0.002356	0.004295	0.104017	0.023306	0.005378	0.005943	0.00434	0.002219
3.394	0.067726	0.073783	0.016886	0.049857	0.011834	0.117632	0.038326	0.01141	0.002361	0.004266	0.104025	0.023643	0.005409	0.00589	0.00435	0.002214
3.3945	0.06754	0.073791	0.016946	0.050078	0.011685	0.117769	0.037687	0.011474	0.002366	0.004237	0.104027	0.023982	0.00544	0.005837	0.004361	0.00221
3.395	0.067348	0.073789	0.017003	0.050298	0.011539	0.117902	0.03705	0.011538	0.002371	0.004208	0.104024	0.024323	0.005471	0.005785	0.004371	0.002205
3.3955	0.067148	0.073777	0.017056	0.050519	0.011395	0.118031	0.036416	0.011602	0.002377	0.00418	0.104016	0.024666	0.005502	0.005732	0.004381	0.0022
3.396	0.066941	0.073755	0.017107	0.05074	0.011254	0.118156	0.035783	0.011665	0.002382	0.004153	0.104002	0.02501	0.005533	0.005679	0.004391	0.002195
3.3965	0.066727	0.073722	0.017155	0.050961	0.011116	0.118276	0.035154	0.011728	0.002388	0.004125	0.103982	0.025357	0.005564	0.005626	0.004401	0.00219
3.397	0.066506	0.073678	0.017199	0.051183	0.010981	0.118393	0.034527	0.011791	0.002393	0.004098	0.103956	0.025705	0.005595	0.005573	0.004411	0.002184
3.3975	0.066277	0.073623	0.01724	0.051405	0.010848	0.118505	0.033903	0.011853	0.002399	0.004071	0.103923	0.026054	0.005626	0.005519	0.004421	0.002179
3.398	0.06604	0.073557	0.017277	0.051628	0.010717	0.118612	0.033282	0.011915	0.002405	0.004045	0.103884	0.026405	0.005657	0.005466	0.00443	0.002173
3.3985	0.065796	0.07348	0.017311	0.051852	0.010589	0.118715	0.032665	0.011976	0.002411	0.004019	0.103837	0.026757	0.005688	0.005412	0.00444	0.002167
3.399	0.065545	0.073391	0.017341	0.052076	0.010464	0.118815	0.032051	0.012037	0.002417	0.003994	0.103783	0.02711	0.005719	0.005358	0.004449	0.002161
3.3995	0.065285	0.07329	0.017368	0.052301	0.010342	0.11891	0.031441	0.012097	0.002424	0.003969	0.103722	0.027464	0.00575	0.005304	0.004458	0.002154
3.4	0.065018	0.073178	0.01739	0.052527	0.010221	0.119001	0.030835	0.012156	0.00243	0.003944	0.103652	0.027819	0.005781	0.005249	0.004467	0.002148
3.4005	0.064743	0.073054	0.017409	0.052754	0.010104	0.119088	0.030232	0.012215	0.002437	0.00392	0.103576	0.028175	0.005812	0.005194	0.004475	0.002141
3.401	0.06446	0.072919	0.017423	0.052982	0.009989	0.119171	0.029634	0.012273	0.002443	0.003896	0.103491	0.028531	0.005843	0.005139	0.004484	0.002134
3.4015	0.064169	0.072771	0.017433	0.053211	0.009877	0.119251	0.02904	0.01233	0.00245	0.003872	0.103398	0.028888	0.005873	0.005083	0.004492	0.002126
3.402	0.06387	0.072612	0.017439	0.05344	0.009767	0.119327	0.028451	0.012386	0.002456	0.003849	0.103296	0.029246	0.005904	0.005027	0.0045	0.002119
3.4025	0.063563	0.072442	0.01744	0.053671	0.00966	0.1194	0.027866	0.012442	0.002463	0.003826	0.103186	0.029603	0.005935	0.00497	0.004507	0.002111
3.403	0.063248	0.07226	0.017437	0.053903	0.009555	0.119469	0.027286	0.012496	0.00247	0.003804	0.103068	0.029961	0.005965	0.004912	0.004515	0.002103
3.4035	0.062925	0.072067	0.017429	0.054136	0.009454	0.119535	0.02671	0.01255	0.002477	0.003782	0.102941	0.030319	0.005996	0.004854	0.004522	0.002095
3.404	0.062593	0.071862	0.017417	0.054371	0.009354	0.119597	0.026139	0.012602	0.002484	0.003761	0.102804	0.030677	0.006026	0.004796	0.004529	0.002086
3.4045	0.062254	0.071646	0.017399	0.054606	0.009257	0.119656	0.025574	0.012653	0.002491	0.00374	0.102658	0.031035	0.006057	0.004737	0.004535	0.002078
3.405	0.061905	0.071418	0.017377	0.054843	0.009163	0.119712	0.025013	0.012703	0.002498	0.003719	0.102503	0.031392	0.006087	0.004677	0.004541	0.002069
3.4055	0.061549	0.071179	0.017349	0.055082	0.009072	0.119765	0.024457	0.012751	0.002505	0.003699	0.102339	0.031749	0.006117	0.004616	0.004547	0.002059
3.406	0.061184	0.070929	0.017317	0.055322	0.008983	0.119816	0.023907	0.012799	0.002512	0.003679	0.102164	0.032106	0.006147	0.004555	0.004553	0.00205
3.4065	0.06081	0.070667	0.01728	0.055565	0.008896	0.119863	0.023362	0.012845	0.002519	0.00366	0.101981	0.032462	0.006178	0.004493	0.004558	0.00204
3.407	0.060428	0.070394	0.017237	0.055809	0.008813	0.119909	0.022822	0.012889	0.002526	0.003641	0.101787	0.032816	0.006208	0.004431	0.004563	0.00203
3.4075	0.060038	0.070109	0.01719	0.056057	0.008731	0.119951	0.022287	0.012933	0.002533	0.003622	0.101585	0.03317	0.006238	0.004368	0.004567	0.00202
3.408	0.059639	0.069813	0.017137	0.056307	0.008653	0.119992	0.021758	0.012975	0.00254	0.003604	0.101373	0.033524	0.006267	0.004304	0.004572	0.00201
3.4085	0.059231	0.069506	0.01708	0.056561	0.008577	0.120031	0.021235	0.013015	0.002548	0.003586	0.101153	0.033876	0.006297	0.004239	0.004575	0.001999
3.409	0.058815	0.069187	0.017019	0.056818	0.008503	0.120067	0.020717	0.013054	0.002555	0.003569	0.100925	0.034227	0.006327	0.004174	0.004579	0.001988
3.4095	0.058391	0.068857	0.016952	0.057078	0.008432	0.120102	0.020204	0.013092	0.002562	0.003552	0.100689	0.034577	0.006356	0.004108	0.004582	0.001977
3.41	0.057959	0.068516	0.016882	0.057344	0.008363	0.120134	0.019697	0.013129	0.00257	0.003535	0.100446	0.034926	0.006385	0.004042	0.004584	0.001965
3.4105	0.057519	0.068164	0.016807	0.057614	0.008297	0.120165	0.019196	0.013164	0.002577	0.003519	0.100196	0.035274	0.006415	0.003975	0.004586	0.001954
3.411	0.057071	0.067802	0.016728	0.057889	0.008234	0.120194	0.0187	0.013198	0.002584	0.003503	0.09994	0.035622	0.006444	0.003907	0.004588	0.001942
3.4115	0.056616	0.06743	0.016645	0.05817	0.008173	0.120221	0.01821	0.013231	0.002591	0.003488	0.099679	0.03597	0.006472	0.003839	0.004589	0.00193
3.412	0.056153	0.06705	0.016558	0.058457	0.008114	0.120246	0.017726	0.013263	0.002599	0.003472	0.099413	0.036317	0.006501	0.003771	0.004589	0.001917
3.4125	0.055684	0.06666	0.016469	0.05875	0.008058	0.120269	0.017247	0.013294	0.002606	0.003458	0.099142	0.036663	0.006529	0.003703	0.00459	0.001905
3.413	0.055208	0.066262	0.016376	0.059051	0.008005	0.120289	0.016775	0.013323	0.002613	0.003443	0.098868	0.03701	0.006557	0.003634	0.004589	0.001892
3.4135	0.054727	0.065856	0.01628	0.059359	0.007953	0.120307	0.016307	0.013352	0.00262	0.003429	0.098592	0.037357	0.006585	0.003565	0.004589	0.00188
3.414	0.05424	0.065443	0.016181	0.059674	0.007905	0.120323	0.015846	0.01338	0.002627	0.003416	0.098313	0.037704	0.006612	0.003496	0.004587	0.001867
3.4145	0.053748	0.065023	0.016079	0.059998	0.007859	0.120337	0.015391	0.013407	0.002635	0.003402	0.098032	0.038051	0.006639	0.003427	0.004586	0.001854
3.415	0.053252	0.064596	0.015976	0.06033	0.007815	0.120348	0.014941	0.013433	0.002642	0.003389	0.09775	0.0384	0.006666	0.003358	0.004583	0.00184
3.4155	0.052751	0.064163	0.01587	0.060672	0.007774	0.120356	0.014497	0.013459	0.002649	0.003376	0.097467	0.03875	0.006692	0.00329	0.00458	0.001827
3.416	0.052247	0.063725	0.015762	0.061022	0.007735	0.120362	0.014059	0.013484	0.002655	0.003364	0.097185	0.039101	0.006719	0.003221	0.004577	0.001814
3.4165	0.051739	0.063282	0.015653	0.061383	0.007699	0.120366	0.013626	0.013508	0.002662	0.003352	0.096903	0.039454	0.006744	0.003153	0.004573	0.0018
3.417	0.051229	0.062835	0.015542	0.061753	0.007665	0.120368	0.0132	0.013532	0.002669	0.00334	0.096622	0.03981	0.006769	0.003086	0.004568	0.001786
3.4175	0.050715	0.062384	0.01543	0.062135	0.007634	0.120367	0.012779	0.013555	0.002676	0.003329	0.096343	0.040167	0.006794	0.003019	0.004563	0.001772
3.418	0.0502	0.06193	0.015317	0.062527	0.007605	0.120365	0.012365	0.013577	0.002682	0.003318	0.096066	0.040528	0.006818	0.002952	0.004558	0.001759
3.4185	0.049682	0.061472	0.015203	0.062932	0.007578	0.12036	0.011956	0.013599	0.002688	0.003307	0.095791	0.040892	0.006842	0.002887	0.004552	0.001745
3.419	0.049163	0.061013	0.015088	0.063348	0.007554	0.120355	0.011552	0.013621	0.002695	0.003297	0.095519	0.041258	0.006865	0.002822	0.004545	0.001731
3.4195	0.048643	0.060551	0.014973	0.063777	0.007532	0.120348	0.011155	0.013642	0.002701	0.003286	0.095251	0.041629	0.006887	0.002759	0.004537	0.001717
3.42	0.048123	0.060087	0.014859	0.064219	0.007512	0.120339	0.010764	0.013663	0.002707	0.003277	0.094987	0.042003	0.006909	0.002696	0.004529	0.001702
3.4205	0.047602	0.059623	0.014744	0.064674	0.007495	0.120329	0.010378	0.013684	0.002713	0.003267	0.094726	0.042381	0.00693	0.002635	0.004521	0.001688
3.421	0.047081	0.059158	0.014629	0.065143	0.00748	0.120318	0.009998	0.013704	0.002718	0.003258	0.094471	0.042763	0.006951	0.002575	0.004512	0.001674
3.4215	0.046561	0.058693	0.014515	0.065626	0.007467	0.120306	0.009624	0.013724	0.002724	0.003249	0.094221	0.04315	0.006971	0.002516	0.004502	0.00166
3.422	0.046041	0.058228	0.014402	0.066125	0.007457	0.120293	0.009255	0.013744	0.002729	0.00324	0.093977	0.043541	0.00699	0.002458	0.004492	0.001645
3.4225	0.045523	0.057764	0.014289	0.066638	0.007449	0.120279	0.008893	0.013764	0.002735	0.003231	0.093739	0.043938	0.007008	0.002403	0.004481	0.001631
3.423	0.045006	0.057301	0.014178	0.067167	0.007443	0.120263	0.008536	0.013783	0.00274	0.003223	0.093507	0.044339	0.007025	0.002349	0.004469	0.001616
3.4235	0.044491	0.056839	0.014068	0.067713	0.007439	0.120247	0.008185	0.013803	0.002744	0.003215	0.093282	0.044746	0.007042	0.002296	0.004457	0.001602
3.424	0.043978	0.056379	0.01396	0.068275	0.007438	0.12023	0.00784	0.013822	0.002749	0.003207	0.093064	0.045158	0.007057	0.002246	0.004444	0.001588
3.4245	0.043468	0.055921	0.013853	0.068854	0.007439	0.120211	0.0075	0.013842	0.002754	0.003199	0.092854	0.045575	0.007072	0.002198	0.00443	0.001573
3.425	0.042961	0.055466	0.013749	0.06945	0.007441	0.120192	0.007166	0.013861	0.002758	0.003191	0.092652	0.045999	0.007086	0.002151	0.004416	0.001559
3.4255	0.042456	0.055014	0.013646	0.070064	0.007446	0.120172	0.006838	0.013881	0.002762	0.003184	0.092459	0.046428	0.007099	0.002107	0.004402	0.001544
3.426	0.041956	0.054565	0.013546	0.070697	0.007453	0.120151	0.006515	0.013901	0.002766	0.003177	0.092274	0.046863	0.007111	0.002066	0.004387	0.00153
3.4265	0.041459	0.05412	0.013448	0.071348	0.007462	0.12013	0.006199	0.01392	0.002769	0.00317	0.0921	0.047304	0.007122	0.002026	0.004371	0.001515
3.427	0.040966	0.053679	0.013354	0.072018	0.007473	0.120108	0.005888	0.01394	0.002773	0.003163	0.091935	0.047752	0.007133	0.00199	0.004355	0.001501
3.4275	0.040478	0.053242	0.013262	0.072708	0.007486	0.120087	0.005582	0.013961	0.002776	0.003156	0.091781	0.048205	0.007142	0.001955	0.004338	0.001486
3.428	0.039994	0.052809	0.013173	0.073417	0.007501	0.120065	0.005282	0.013981	0.002779	0.003149	0.091638	0.048665	0.007151	0.001924	0.004321	0.001472
3.4285	0.039515	0.052382	0.013088	0.074146	0.007518	0.120044	0.004988	0.014002	0.002782	0.003142	0.091507	0.049132	0.007159	0.001895	0.004303	0.001458
3.429	0.039042	0.05196	0.013006	0.074896	0.007537	0.120023	0.0047	0.014023	0.002784	0.003136	0.091387	0.049605	0.007166	0.00187	0.004285	0.001443
3.4295	0.038574	0.051543	0.012927	0.075666	0.007558	0.120003	0.004417	0.014045	0.002787	0.003129	0.091279	0.050085	0.007172	0.001847	0.004267	0.001429
3.43	0.038112	0.051133	0.012853	0.076457	0.007581	0.119984	0.00414	0.014066	0.002789	0.003123	0.091184	0.050571	0.007177	0.001827	0.004248	0.001415
3.4305	0.037657	0.050729	0.012782	0.07727	0.007605	0.119965	0.003869	0.014089	0.00279	0.003117	0.091103	0.051063	0.007182	0.001811	0.00423	0.001401
3.431	0.037207	0.050331	0.012716	0.078104	0.007631	0.119948	0.003603	0.014111	0.002792	0.00311	0.091036	0.051563	0.007186	0.001798	0.00421	0.001386
3.4315	0.036765	0.04994	0.012654	0.07896	0.007659	0.119932	0.003343	0.014134	0.002794	0.003104	0.090983	0.052069	0.007189	0.001789	0.004191	0.001372
3.432	0.03633	0.049556	0.012597	0.079838	0.007689	0.119918	0.003088	0.014158	0.002795	0.003098	0.090945	0.052582	0.007192	0.001783	0.004171	0.001358
3.4325	0.035902	0.04918	0.012544	0.080739	0.00772	0.119905	0.002839	0.014182	0.002796	0.003091	0.090922	0.053101	0.007193	0.001781	0.004151	0.001344
3.433	0.035482	0.048811	0.012496	0.081662	0.007753	0.119893	0.002596	0.014206	0.002797	0.003085	0.090916	0.053627	0.007195	0.001782	0.004132	0.001331
3.4335	0.03507	0.04845	0.012453	0.082608	0.007787	0.119884	0.002358	0.014231	0.002797	0.003079	0.090926	0.054159	0.007195	0.001788	0.004112	0.001317
3.434	0.034666	0.048097	0.012415	0.083577	0.007823	0.119876	0.002126	0.014256	0.002798	0.003073	0.090954	0.054698	0.007195	0.001797	0.004091	0.001303
3.4345	0.03427	0.047752	0.012383	0.08457	0.00786	0.119869	0.0019	0.014282	0.002798	0.003066	0.090999	0.055243	0.007194	0.001811	0.004071	0.00129
3.435	0.033884	0.047416	0.012356	0.085586	0.007899	0.119864	0.001679	0.014308	0.002798	0.00306	0.091062	0.055795	0.007193	0.001829	0.004051	0.001276
3.4355	0.033506	0.047089	0.012335	0.086626	0.007939	0.119861	0.001463	0.014335	0.002798	0.003054	0.091144	0.056354	0.007191	0.001851	0.004031	0.001263
3.436	0.033137	0.046771	0.012319	0.08769	0.00798	0.119859	0.001254	0.014362	0.002798	0.003047	0.091245	0.056919	0.007189	0.001878	0.004011	0.00125
3.4365	0.032778	0.046462	0.01231	0.088779	0.008022	0.119859	0.00105	0.01439	0.002797	0.003041	0.091365	0.05749	0.007186	0.001909	0.003991	0.001237
3.437	0.032428	0.046162	0.012306	0.089892	0.008066	0.11986	0.000851	0.014418	0.002797	0.003035	0.091505	0.058068	0.007183	0.001945	0.003971	0.001224
3.4375	0.032089	0.045872	0.012309	0.09103	0.008111	0.119862	0.000659	0.014446	0.002796	0.003028	0.091665	0.058653	0.007179	0.001986	0.003952	0.001211
3.438	0.031759	0.045591	0.012319	0.092193	0.008157	0.119866	0.000471	0.014475	0.002795	0.003022	0.091846	0.059245	0.007174	0.002032	0.003933	0.001199
3.4385	0.03144	0.045321	0.012335	0.093381	0.008203	0.119871	0.00029	0.014505	0.002795	0.003015	0.092048	0.059843	0.007169	0.002083	0.003913	0.001186
3.439	0.031131	0.04506	0.012358	0.094595	0.008251	0.119876	0.000114	0.014535	0.002794	0.003008	0.092272	0.060448	0.007164	0.002139	0.003895	0.001174
3.4395	0.030832	0.04481	0.012388	0.095835	0.0083	0.119883	0	0.014565	0.002792	0.003002	0.092517	0.06106	0.007158	0.0022	0.003876	0.001162
3.44	0.030545	0.04457	0.012425	0.097101	0.008349	0.119891	0	0.014596	0.002791	0.002995	0.092784	0.061679	0.007152	0.002267	0.003858	0.00115
3.4405	0.030269	0.04434	0.012469	0.098394	0.0084	0.119899	0	0.014627	0.00279	0.002989	0.093074	0.062305	0.007145	0.00234	0.00384	0.001139
3.441	0.030004	0.044121	0.012521	0.099714	0.008451	0.119908	0	0.014659	0.002789	0.002982	0.093386	0.062939	0.007138	0.002418	0.003823	0.001127
3.4415	0.02975	0.043914	0.01258	0.101061	0.008503	0.119918	0	0.014691	0.002787	0.002975	0.09372	0.06358	0.007131	0.002502	0.003806	0.001116
3.442	0.029508	0.043717	0.012647	0.102435	0.008555	0.119927	0	0.014724	0.002786	0.002968	0.094078	0.064228	0.007123	0.002592	0.003789	0.001105
3.4425	0.029277	0.043531	0.012722	0.103838	0.008608	0.119937	0	0.014758	0.002784	0.002962	0.094458	0.064883	0.007115	0.002688	0.003773	0.001094
3.443	0.029058	0.043356	0.012804	0.105268	0.008661	0.119946	0	0.014792	0.002783	0.002955	0.094862	0.065547	0.007106	0.00279	0.003757	0.001084
3.4435	0.028852	0.043193	0.012895	0.106727	0.008715	0.119954	0	0.014827	0.002781	0.002948	0.095289	0.066218	0.007097	0.002899	0.003742	0.001073
3.444	0.028657	0.043042	0.012995	0.108214	0.00877	0.119961	0	0.014863	0.00278	0.002941	0.095739	0.066896	0.007088	0.003014	0.003728	0.001063
3.4445	0.028474	0.042902	0.013103	0.109731	0.008824	0.119968	0	0.014899	0.002778	0.002935	0.096212	0.067583	0.007079	0.003137	0.003714	0.001054
3.445	0.028304	0.042774	0.013219	0.111276	0.008879	0.119972	0	0.014936	0.002777	0.002928	0.096709	0.068278	0.007069	0.003266	0.0037	0.001044
3.4455	0.028147	0.042657	0.013345	0.112851	0.008934	0.119975	0	0.014974	0.002775	0.002921	0.097229	0.06898	0.007058	0.003402	0.003687	0.001035
3.446	0.028002	0.042553	0.013479	0.114455	0.008989	0.119976	0	0.015013	0.002773	0.002914	0.097772	0.06969	0.007048	0.003545	0.003675	0.001026
3.4465	0.027869	0.042461	0.013623	0.116089	0.009044	0.119975	0	0.015053	0.002772	0.002908	0.098339	0.070408	0.007037	0.003696	0.003664	0.001017
3.447	0.02775	0.042381	0.013775	0.117753	0.0091	0.119972	0	0.015093	0.00277	0.002901	0.098928	0.071134	0.007025	0.003854	0.003653	0.001009
3.4475	0.027643	0.042313	0.013937	0.119446	0.009155	0.119966	0	0.015135	0.002769	0.002894	0.099541	0.071868	0.007014	0.00402	0.003643	0.001
3.448	0.02755	0.042258	0.014109	0.12117	0.00921	0.119959	0	0.015178	0.002767	0.002888	0.100176	0.072609	0.007001	0.004194	0.003633	0.000993
3.4485	0.027469	0.042215	0.01429	0.122923	0.009265	0.119949	0	0.015222	0.002766	0.002881	0.100834	0.073358	0.006989	0.004375	0.003624	0.000985
3.449	0.027402	0.042184	0.014482	0.124706	0.00932	0.119937	0	0.015266	0.002764	0.002875	0.101514	0.074115	0.006976	0.004565	0.003616	0.000978
3.4495	0.027348	0.042166	0.014683	0.126518	0.009374	0.119922	0	0.015312	0.002763	0.002868	0.102216	0.074879	0.006963	0.004764	0.003609	0.000971
3.45	0.027307	0.042161	0.014894	0.128361	0.009428	0.119905	0	0.015359	0.002762	0.002862	0.102941	0.07565	0.00695	0.00497	0.003602	0.000964
3.4505	0.02728	0.042169	0.015115	0.130233	0.009482	0.119884	0	0.015408	0.00276	0.002855	0.103686	0.076429	0.006936	0.005186	0.003597	0.000958
3.451	0.027266	0.042189	0.015347	0.132134	0.009535	0.119861	0	0.015457	0.002759	0.002849	0.104454	0.077215	0.006922	0.00541	0.003592	0.000952
3.4515	0.027265	0.042222	0.015589	0.134064	0.009588	0.119835	0	0.015508	0.002758	0.002843	0.105242	0.078008	0.006907	0.005643	0.003588	0.000947
3.452	0.027278	0.042268	0.015842	0.136024	0.00964	0.119805	0	0.01556	0.002757	0.002837	0.106052	0.078807	0.006892	0.005886	0.003584	0.000941
3.4525	0.027305	0.042326	0.016106	0.138012	0.009692	0.119772	0	0.015614	0.002756	0.00283	0.106881	0.079614	0.006876	0.006137	0.003582	0.000937
3.453	0.027345	0.042398	0.016381	0.140029	0.009743	0.119735	0	0.015669	0.002755	0.002824	0.107731	0.080428	0.006861	0.006399	0.00358	0.000932
3.4535	0.027399	0.042482	0.016666	0.142075	0.009793	0.119695	0	0.015726	0.002754	0.002818	0.1086	0.081248	0.006845	0.00667	0.003579	0.000928
3.454	0.027466	0.042579	0.016963	0.144148	0.009843	0.119651	0	0.015784	0.002753	0.002812	0.109489	0.082074	0.006828	0.00695	0.003579	0.000924
3.4545	0.027548	0.042689	0.017271	0.14625	0.009892	0.119603	0	0.015843	0.002753	0.002807	0.110396	0.082907	0.006811	0.007241	0.00358	0.000921
3.455	0.027643	0.042811	0.01759	0.148379	0.00994	0.119551	0	0.015904	0.002752	0.002801	0.111322	0.083746	0.006794	0.007542	0.003582	0.000918
3.4555	0.027751	0.042946	0.017921	0.150535	0.009987	0.119494	0	0.015967	0.002751	0.002795	0.112266	0.08459	0.006776	0.007854	0.003585	0.000916
3.456	0.027874	0.043094	0.018263	0.152719	0.010034	0.119434	0	0.016031	0.002751	0.002789	0.113228	0.08544	0.006758	0.008176	0.003589	0.000914
3.4565	0.02801	0.043255	0.018617	0.154929	0.01008	0.119369	0	0.016097	0.00275	0.002784	0.114207	0.086296	0.00674	0.008509	0.003593	0.000912
3.457	0.028161	0.043428	0.018983	0.157165	0.010124	0.119299	0	0.016165	0.00275	0.002778	0.115204	0.087157	0.006721	0.008852	0.003599	0.000911
3.4575	0.028325	0.043613	0.01936	0.159427	0.010168	0.119225	0	0.016234	0.00275	0.002773	0.116216	0.088022	0.006702	0.009207	0.003605	0.000911
3.458	0.028503	0.043811	0.01975	0.161714	0.010211	0.119147	0	0.016305	0.002749	0.002768	0.117245	0.088892	0.006683	0.009573	0.003613	0.00091
3.4585	0.028695	0.044021	0.020151	0.164026	0.010253	0.119063	0	0.016378	0.002749	0.002762	0.11829	0.089766	0.006663	0.009951	0.003621	0.000911
3.459	0.028901	0.044243	0.020565	0.166362	0.010293	0.118974	0	0.016453	0.002749	0.002757	0.11935	0.090645	0.006643	0.010341	0.00363	0.000912
3.4595	0.029121	0.044477	0.020991	0.168722	0.010333	0.11888	0	0.01653	0.002749	0.002752	0.120425	0.091527	0.006623	0.010742	0.003641	0.000913
3.46	0.029356	0.044723	0.021429	0.171105	0.010372	0.118781	0	0.016609	0.002749	0.002747	0.121515	0.092412	0.006602	0.011155	0.003652	0.000915
3.4605	0.029605	0.04498	0.02188	0.173511	0.010409	0.118676	0	0.016691	0.002749	0.002742	0.122618	0.093301	0.006581	0.011581	0.003664	0.000917
3.461	0.029867	0.045249	0.022343	0.175938	0.010445	0.118564	0	0.016774	0.002749	0.002737	0.123735	0.094192	0.00656	0.012019	0.003678	0.00092
3.4615	0.030145	0.04553	0.022818	0.178387	0.01048	0.118446	0	0.01686	0.002749	0.002732	0.124865	0.095086	0.006539	0.01247	0.003692	0.000923
3.462	0.030436	0.045822	0.023307	0.180857	0.010513	0.118321	0	0.016948	0.002749	0.002727	0.126007	0.095981	0.006517	0.012934	0.003707	0.000927
3.4625	0.030742	0.046125	0.023808	0.183347	0.010546	0.118189	0	0.017038	0.00275	0.002723	0.127162	0.096878	0.006495	0.013411	0.003723	0.000932
3.463	0.031062	0.046439	0.024322	0.185856	0.010577	0.118049	0	0.017131	0.00275	0.002718	0.128329	0.097776	0.006472	0.013901	0.00374	0.000937
3.4635	0.031397	0.046764	0.024849	0.188384	0.010606	0.117901	0	0.017226	0.00275	0.002713	0.129507	0.098676	0.006449	0.014404	0.003759	0.000942
3.464	0.031747	0.047099	0.025388	0.19093	0.010635	0.117744	0	0.017324	0.002751	0.002709	0.130697	0.099575	0.006426	0.014922	0.003778	0.000949
3.4645	0.032111	0.047445	0.025941	0.193494	0.010662	0.117578	0	0.017425	0.002751	0.002704	0.131897	0.100476	0.006402	0.015453	0.003798	0.000956
3.465	0.032489	0.047801	0.026507	0.196075	0.010687	0.117402	0	0.017528	0.002752	0.0027	0.133108	0.101376	0.006378	0.015999	0.003819	0.000963
3.4655	0.032882	0.048167	0.027087	0.198672	0.010711	0.117216	0	0.017634	0.002753	0.002695	0.134329	0.102277	0.006354	0.016559	0.003841	0.000971
3.466	0.03329	0.048543	0.027679	0.201284	0.010734	0.117019	0	0.017743	0.002753	0.002691	0.135559	0.103177	0.006329	0.017134	0.003865	0.00098
3.4665	0.033712	0.048929	0.028286	0.203912	0.010755	0.116811	0	0.017855	0.002754	0.002686	0.136798	0.104078	0.006304	0.017723	0.003889	0.00099
3.467	0.034149	0.049324	0.028905	0.206553	0.010775	0.116592	0	0.01797	0.002755	0.002682	0.138046	0.104979	0.006278	0.018328	0.003914	0.001
3.4675	0.034601	0.049729	0.029539	0.209208	0.010793	0.11636	0.000105	0.018088	0.002756	0.002678	0.139302	0.10588	0.006252	0.018949	0.00394	0.001011
3.468	0.035068	0.050143	0.030186	0.211876	0.01081	0.116116	0.000304	0.018209	0.002756	0.002673	0.140566	0.106781	0.006226	0.019585	0.003968	0.001023
3.4685	0.035549	0.050566	0.030848	0.214556	0.010824	0.115859	0.000511	0.018333	0.002757	0.002669	0.141838	0.107681	0.006199	0.020237	0.003996	0.001035
3.469	0.036046	0.050998	0.031523	0.217248	0.010838	0.11559	0.000726	0.018461	0.002758	0.002665	0.143116	0.108583	0.006172	0.020906	0.004025	0.001048
3.4695	0.036557	0.051438	0.032213	0.219951	0.010849	0.115307	0.00095	0.018592	0.002759	0.002661	0.144401	0.109484	0.006144	0.02159	0.004056	0.001062
3.47	0.037083	0.051887	0.032917	0.222663	0.010859	0.115011	0.001182	0.018727	0.00276	0.002656	0.145692	0.110386	0.006116	0.022292	0.004087	0.001077
3.4705	0.037625	0.052344	0.033636	0.225386	0.010866	0.114701	0.001422	0.018866	0.002761	0.002652	0.146987	0.111289	0.006087	0.02301	0.004119	0.001092
3.471	0.038181	0.052808	0.03437	0.228116	0.010872	0.114378	0.001671	0.019008	0.002762	0.002648	0.148288	0.112193	0.006058	0.023746	0.004153	0.001109
3.4715	0.038753	0.05328	0.035118	0.230855	0.010876	0.114041	0.001929	0.019154	0.002763	0.002643	0.149593	0.113099	0.006028	0.0245	0.004187	0.001126
3.472	0.03934	0.05376	0.035881	0.233601	0.010878	0.113691	0.002196	0.019304	0.002764	0.002639	0.150901	0.114007	0.005997	0.025271	0.004223	0.001144
3.4725	0.039942	0.054246	0.036659	0.236353	0.010879	0.113327	0.002471	0.019458	0.002765	0.002635	0.152212	0.114918	0.005967	0.02606	0.00426	0.001163
3.473	0.040559	0.054739	0.037452	0.23911	0.010877	0.112949	0.002756	0.019616	0.002766	0.002631	0.153525	0.115831	0.005935	0.026867	0.004297	0.001183
3.4735	0.041192	0.055239	0.038261	0.241872	0.010873	0.112558	0.003049	0.019778	0.002767	0.002626	0.154839	0.116747	0.005903	0.027693	0.004336	0.001204
3.474	0.04184	0.055745	0.039085	0.244638	0.010867	0.112152	0.003352	0.019945	0.002768	0.002622	0.156154	0.117667	0.005871	0.028537	0.004376	0.001225
3.4745	0.042504	0.056257	0.039925	0.247407	0.010859	0.111732	0.003664	0.020116	0.002769	0.002618	0.157469	0.118591	0.005838	0.029401	0.004417	0.001248
3.475	0.043183	0.056775	0.040781	0.250179	0.010849	0.111299	0.003986	0.020291	0.00277	0.002613	0.158783	0.119519	0.005804	0.030284	0.004459	0.001272
3.4755	0.043878	0.057298	0.041652	0.252952	0.010837	0.110851	0.004317	0.020471	0.002771	0.002609	0.160096	0.120452	0.005771	0.031186	0.004502	0.001296
3.476	0.044588	0.057827	0.042539	0.255726	0.010823	0.110389	0.004657	0.020656	0.002772	0.002604	0.161407	0.121389	0.005736	0.032108	0.004546	0.001322
3.4765	0.045315	0.058362	0.043442	0.2585	0.010806	0.109912	0.005008	0.020845	0.002773	0.0026	0.162716	0.122332	0.005701	0.033051	0.004592	0.001349
3.477	0.046057	0.058901	0.044361	0.261274	0.010788	0.109421	0.005368	0.021039	0.002774	0.002595	0.164022	0.12328	0.005666	0.034013	0.004638	0.001377
3.4775	0.046815	0.059446	0.045296	0.264047	0.010768	0.108916	0.005739	0.021237	0.002775	0.00259	0.165324	0.124233	0.00563	0.034996	0.004686	0.001406
3.478	0.047589	0.059995	0.046247	0.266819	0.010746	0.108397	0.006119	0.021441	0.002776	0.002585	0.166622	0.125193	0.005593	0.036	0.004734	0.001436
3.4785	0.048379	0.060549	0.047214	0.269588	0.010722	0.107863	0.00651	0.021649	0.002777	0.00258	0.167916	0.126158	0.005556	0.037024	0.004784	0.001467
3.479	0.049185	0.061108	0.048198	0.272355	0.010696	0.107315	0.006911	0.021863	0.002778	0.002575	0.169204	0.127129	0.005519	0.03807	0.004836	0.001499
3.4795	0.050007	0.061671	0.049198	0.275119	0.010668	0.106754	0.007323	0.022081	0.002779	0.00257	0.170486	0.128106	0.005481	0.039137	0.004888	0.001532
3.48	0.050845	0.062238	0.050214	0.277881	0.010638	0.106178	0.007746	0.022304	0.00278	0.002565	0.171762	0.129089	0.005443	0.040226	0.004941	0.001567
3.4805	0.051699	0.062809	0.051246	0.28064	0.010606	0.10559	0.008179	0.022533	0.002781	0.00256	0.17303	0.130078	0.005404	0.041337	0.004996	0.001603
3.481	0.052569	0.063384	0.052294	0.283397	0.010572	0.104988	0.008623	0.022766	0.002782	0.002554	0.174291	0.131074	0.005364	0.04247	0.005052	0.00164
3.4815	0.053456	0.063963	0.053358	0.28615	0.010537	0.104372	0.009078	0.023005	0.002784	0.002549	0.175544	0.132075	0.005324	0.043626	0.00511	0.001679
3.482	0.054358	0.064545	0.054439	0.2889	0.010499	0.103744	0.009545	0.023249	0.002785	0.002543	0.176788	0.133084	0.005284	0.044803	0.005168	0.001719
3.4825	0.055277	0.065131	0.055535	0.291646	0.01046	0.103104	0.010022	0.023499	0.002786	0.002537	0.178024	0.134098	0.005243	0.046004	0.005228	0.00176
3.483	0.056212	0.065719	0.056648	0.294389	0.010419	0.10245	0.010512	0.023754	0.002787	0.002531	0.17925	0.135119	0.005202	0.047227	0.005289	0.001803
3.4835	0.057163	0.066311	0.057776	0.297127	0.010377	0.101785	0.011012	0.024014	0.002788	0.002525	0.180468	0.136147	0.005161	0.048473	0.005352	0.001847
3.484	0.05813	0.066905	0.05892	0.299861	0.010333	0.101107	0.011525	0.024279	0.002789	0.002519	0.181675	0.137181	0.005119	0.049743	0.005416	0.001892
3.4845	0.059114	0.067502	0.06008	0.30259	0.010288	0.100417	0.012049	0.024551	0.00279	0.002512	0.182873	0.138222	0.005077	0.051036	0.005481	0.00194
3.485	0.060114	0.068101	0.061255	0.305314	0.010241	0.099716	0.012585	0.024827	0.002791	0.002505	0.184061	0.13927	0.005034	0.052352	0.005548	0.001989
3.4855	0.061129	0.068703	0.062446	0.308033	0.010193	0.099003	0.013134	0.02511	0.002792	0.002498	0.185237	0.140324	0.004991	0.053692	0.005616	0.002039
3.486	0.062161	0.069306	0.063653	0.310747	0.010144	0.09828	0.013694	0.025398	0.002793	0.002491	0.186403	0.141385	0.004948	0.055056	0.005686	0.002091
3.4865	0.063209	0.069911	0.064875	0.313455	0.010093	0.097546	0.014267	0.025692	0.002794	0.002483	0.187557	0.142453	0.004904	0.056444	0.005757	0.002145
3.487	0.064274	0.070517	0.066112	0.316157	0.010041	0.096802	0.014853	0.025991	0.002795	0.002476	0.188699	0.143528	0.004861	0.057855	0.005831	0.002201
3.4875	0.065353	0.071125	0.067364	0.318853	0.009989	0.096047	0.015451	0.026297	0.002796	0.002468	0.189829	0.144609	0.004817	0.059291	0.005905	0.002258
3.488	0.066449	0.071733	0.06863	0.321543	0.009935	0.095283	0.016062	0.026608	0.002797	0.002459	0.190945	0.145697	0.004773	0.060751	0.005982	0.002318
3.4885	0.06756	0.072343	0.069912	0.324228	0.00988	0.09451	0.016685	0.026924	0.002798	0.002451	0.192047	0.146791	0.004728	0.062235	0.00606	0.002379
3.489	0.068687	0.072952	0.071208	0.326906	0.009824	0.093728	0.017322	0.027247	0.002799	0.002442	0.193134	0.147891	0.004684	0.063743	0.006141	0.002442
3.4895	0.06983	0.073562	0.072519	0.329578	0.009768	0.092937	0.017971	0.027575	0.0028	0.002433	0.194205	0.148998	0.004639	0.065275	0.006223	0.002508
3.49	0.070987	0.074172	0.073843	0.332244	0.00971	0.092137	0.018634	0.02791	0.002801	0.002423	0.195261	0.150111	0.004594	0.066831	0.006307	0.002575
3.4905	0.07216	0.074781	0.075182	0.334903	0.009653	0.09133	0.019311	0.02825	0.002802	0.002413	0.196299	0.15123	0.004549	0.068412	0.006393	0.002645
3.491	0.073348	0.07539	0.076535	0.337557	0.009594	0.090514	0.02	0.028596	0.002804	0.002403	0.197318	0.152354	0.004505	0.070017	0.006482	0.002717
3.4915	0.074551	0.075998	0.077901	0.340204	0.009536	0.089691	0.020703	0.028947	0.002805	0.002392	0.198319	0.153484	0.00446	0.071646	0.006572	0.002791
3.492	0.075769	0.076606	0.079281	0.342845	0.009477	0.08886	0.02142	0.029305	0.002806	0.002381	0.1993	0.154618	0.004415	0.073299	0.006665	0.002868
3.4925	0.077001	0.077212	0.080673	0.345479	0.009417	0.088022	0.02215	0.029668	0.002808	0.002369	0.200259	0.155757	0.00437	0.074976	0.00676	0.002947
3.493	0.078248	0.077817	0.082079	0.348106	0.009358	0.087178	0.022894	0.030037	0.002809	0.002357	0.201196	0.156901	0.004325	0.076678	0.006858	0.003029
3.4935	0.07951	0.07842	0.083498	0.350727	0.009298	0.086326	0.023652	0.030412	0.002811	0.002345	0.20211	0.158049	0.00428	0.078403	0.006958	0.003114
3.494	0.080787	0.079022	0.084929	0.35334	0.009238	0.085469	0.024424	0.030793	0.002813	0.002332	0.202999	0.1592	0.004235	0.080152	0.00706	0.003201
3.4945	0.082078	0.079623	0.086373	0.355946	0.009179	0.084605	0.02521	0.031179	0.002815	0.002318	0.203862	0.160354	0.00419	0.081926	0.007165	0.003292
3.495	0.083384	0.080221	0.087829	0.358544	0.009119	0.083735	0.026009	0.031571	0.002817	0.002304	0.204698	0.161511	0.004145	0.083723	0.007273	0.003385
3.4955	0.084704	0.080818	0.089297	0.361135	0.00906	0.08286	0.026823	0.031969	0.002819	0.002289	0.205506	0.162671	0.004101	0.085543	0.007384	0.003481
3.496	0.086039	0.081413	0.090777	0.363717	0.009001	0.08198	0.027651	0.032373	0.002821	0.002274	0.206285	0.163832	0.004057	0.087387	0.007498	0.00358
3.4965	0.087388	0.082006	0.092268	0.366291	0.008943	0.081094	0.028493	0.032782	0.002823	0.002258	0.207032	0.164993	0.004012	0.089255	0.007614	0.003683
3.497	0.088752	0.082597	0.093771	0.368856	0.008885	0.080204	0.029349	0.033198	0.002826	0.002242	0.207749	0.166156	0.003968	0.091146	0.007734	0.003789
3.4975	0.09013	0.083185	0.095284	0.371411	0.008827	0.07931	0.030219	0.033618	0.002828	0.002225	0.208433	0.167318	0.003925	0.09306	0.007857	0.003898
3.498	0.091522	0.083772	0.096808	0.373956	0.00877	0.078412	0.031103	0.034044	0.002831	0.002207	0.209083	0.168479	0.003881	0.094997	0.007983	0.004011
3.4985	0.092929	0.084356	0.098342	0.37649	0.008714	0.077511	0.032002	0.034476	0.002834	0.002189	0.2097	0.169639	0.003838	0.096956	0.008113	0.004127
3.499	0.094351	0.084938	0.099886	0.379014	0.008658	0.076606	0.032914	0.034913	0.002837	0.00217	0.210282	0.170795	0.003795	0.098938	0.008246	0.004247
3.4995	0.095787	0.085517	0.101439	0.381525	0.008603	0.075699	0.033841	0.035356	0.00284	0.00215	0.210831	0.171949	0.003753	0.100942	0.008383	0.004371
3.5	0.097237	0.086095	0.103001	0.384024	0.00855	0.074789	0.034782	0.035804	0.002844	0.00213	0.211344	0.173099	0.003711	0.102967	0.008523	0.004499
3.5005	0.098702	0.08667	0.104572	0.386509	0.008497	0.073877	0.035738	0.036257	0.002848	0.002108	0.211823	0.174243	0.003669	0.105014	0.008667	0.004631
3.501	0.100183	0.087243	0.106151	0.38898	0.008445	0.072963	0.036707	0.036716	0.002851	0.002086	0.212266	0.175382	0.003628	0.107083	0.008816	0.004766
3.5015	0.101678	0.087813	0.107737	0.391437	0.008394	0.072048	0.03769	0.037179	0.002855	0.002063	0.212675	0.176515	0.003587	0.109172	0.008968	0.004906
3.502	0.103188	0.088382	0.109331	0.393878	0.008345	0.071131	0.038688	0.037648	0.00286	0.002039	0.21305	0.17764	0.003547	0.111281	0.009125	0.00505
3.5025	0.104713	0.088947	0.110931	0.396302	0.008297	0.070214	0.0397	0.038121	0.002864	0.002015	0.213389	0.178759	0.003507	0.113411	0.009285	0.005199
3.503	0.106253	0.089511	0.112536	0.39871	0.008251	0.069296	0.040725	0.038599	0.002869	0.001989	0.213695	0.179869	0.003468	0.11556	0.00945	0.005352
3.5035	0.107808	0.090072	0.114148	0.4011	0.008206	0.068377	0.041765	0.039081	0.002873	0.001963	0.213967	0.180971	0.003429	0.117728	0.00962	0.00551
3.504	0.109378	0.09063	0.115764	0.403473	0.008163	0.067459	0.042818	0.039568	0.002879	0.001936	0.214208	0.182064	0.003391	0.119916	0.009794	0.005672
3.5045	0.110964	0.091186	0.117384	0.405829	0.008122	0.066542	0.043885	0.04006	0.002884	0.001907	0.214418	0.183148	0.003353	0.122122	0.009973	0.00584
3.505	0.112565	0.09174	0.119009	0.408166	0.008084	0.065625	0.044966	0.040556	0.002889	0.001878	0.214598	0.184222	0.003316	0.124345	0.010157	0.006012
3.5055	0.114181	0.092291	0.120636	0.410485	0.008047	0.06471	0.046061	0.041055	0.002895	0.001848	0.214751	0.185286	0.00328	0.126586	0.010346	0.006189
3.506	0.115812	0.092839	0.122266	0.412785	0.008013	0.063798	0.047169	0.041559	0.002901	0.001817	0.214878	0.186339	0.003245	0.128844	0.010539	0.006372
3.5065	0.117458	0.093385	0.123899	0.415066	0.007981	0.062888	0.04829	0.042067	0.002908	0.001785	0.21498	0.187381	0.003211	0.131118	0.010738	0.00656
3.507	0.11912	0.093929	0.125533	0.417328	0.007952	0.061982	0.049424	0.042579	0.002914	0.001751	0.215058	0.188412	0.003177	0.133407	0.010942	0.006754
3.5075	0.120796	0.094469	0.127169	0.419571	0.007926	0.06108	0.050572	0.043095	0.002921	0.001717	0.215114	0.18943	0.003145	0.135712	0.011151	0.006953
3.508	0.122487	0.095007	0.128806	0.421795	0.007903	0.060182	0.051732	0.043614	0.002929	0.001682	0.215149	0.190436	0.003113	0.13803	0.011366	0.007158
3.5085	0.124192	0.095542	0.130444	0.423999	0.007882	0.05929	0.052905	0.044137	0.002936	0.001645	0.215164	0.19143	0.003083	0.140363	0.011586	0.007368
3.509	0.125912	0.096074	0.132081	0.426183	0.007865	0.058403	0.05409	0.044664	0.002944	0.001607	0.215161	0.19241	0.003053	0.142709	0.011812	0.007585
3.5095	0.127647	0.096604	0.133719	0.428348	0.007852	0.057522	0.055288	0.045195	0.002952	0.001569	0.215139	0.193378	0.003025	0.145067	0.012043	0.007808
3.51	0.129395	0.09713	0.135356	0.430492	0.007842	0.056648	0.056497	0.04573	0.002961	0.001529	0.215102	0.194332	0.002998	0.147438	0.01228	0.008037
3.5105	0.131156	0.097653	0.136992	0.432616	0.007835	0.055782	0.057719	0.046268	0.00297	0.001488	0.215049	0.195273	0.002972	0.14982	0.012523	0.008273
3.511	0.132932	0.098172	0.138628	0.434718	0.007833	0.054924	0.058952	0.04681	0.00298	0.001446	0.214981	0.196201	0.002948	0.152213	0.012772	0.008516
3.5115	0.13472	0.098688	0.140262	0.436799	0.007834	0.054074	0.060196	0.047356	0.00299	0.001403	0.214901	0.197116	0.002925	0.154616	0.013027	0.008765
3.512	0.136521	0.0992	0.141895	0.438857	0.00784	0.053233	0.061451	0.047906	0.003	0.001358	0.214808	0.198017	0.002904	0.157029	0.013288	0.009021
3.5125	0.138334	0.099708	0.143527	0.440893	0.00785	0.052402	0.062717	0.048461	0.003011	0.001313	0.214705	0.198906	0.002884	0.159451	0.013555	0.009284
3.513	0.14016	0.100211	0.145158	0.442906	0.007865	0.051582	0.063993	0.049019	0.003022	0.001266	0.214591	0.19978	0.002866	0.161882	0.013828	0.009554
3.5135	0.141998	0.100711	0.146787	0.444894	0.007885	0.050773	0.065279	0.049582	0.003034	0.001218	0.214468	0.200641	0.00285	0.164321	0.014108	0.009832
3.514	0.143847	0.101205	0.148416	0.446858	0.00791	0.049976	0.066574	0.05015	0.003047	0.001169	0.214337	0.201489	0.002835	0.166769	0.014394	0.010117
3.5145	0.145708	0.101694	0.150042	0.448796	0.007941	0.049191	0.067879	0.050722	0.00306	0.001118	0.214199	0.202322	0.002823	0.169224	0.014687	0.01041
3.515	0.14758	0.102178	0.151668	0.450708	0.007977	0.048419	0.069193	0.051299	0.003074	0.001067	0.214054	0.203142	0.002812	0.171686	0.014986	0.010711
3.5155	0.149463	0.102657	0.153291	0.452594	0.008018	0.047661	0.070515	0.051881	0.003089	0.001014	0.213902	0.203947	0.002803	0.174156	0.015292	0.01102
3.516	0.151357	0.10313	0.154913	0.454452	0.008066	0.046918	0.071845	0.052469	0.003104	0.00096	0.213746	0.204738	0.002797	0.176631	0.015605	0.011338
3.5165	0.153261	0.103597	0.156533	0.456284	0.008119	0.046189	0.073183	0.053061	0.00312	0.000904	0.213585	0.205513	0.002792	0.179113	0.015924	0.011664
3.517	0.155176	0.104058	0.158151	0.45809	0.008179	0.045476	0.074527	0.05366	0.003137	0.000848	0.213419	0.206274	0.00279	0.181601	0.016251	0.011998
3.5175	0.157101	0.104512	0.159767	0.45987	0.008246	0.044779	0.075879	0.054263	0.003155	0.00079	0.21325	0.207019	0.002789	0.184093	0.016584	0.012342
3.518	0.159035	0.10496	0.161381	0.461623	0.00832	0.044099	0.077237	0.054873	0.003173	0.000731	0.213078	0.207748	0.002791	0.18659	0.016924	0.012694
3.5185	0.160978	0.105401	0.162991	0.463351	0.0084	0.043437	0.0786	0.055489	0.003193	0.000671	0.212904	0.20846	0.002796	0.189092	0.017271	0.013056
3.519	0.162931	0.105835	0.164599	0.465054	0.008488	0.042793	0.079969	0.056111	0.003213	0.00061	0.212727	0.209156	0.002803	0.191597	0.017626	0.013428
3.5195	0.164891	0.106262	0.166203	0.466731	0.008583	0.042167	0.081342	0.056739	0.003234	0.000548	0.212548	0.209835	0.002812	0.194106	0.017987	0.013809
3.52	0.166859	0.10668	0.167804	0.468385	0.008686	0.04156	0.08272	0.057373	0.003257	0.000484	0.212367	0.210497	0.002824	0.196618	0.018356	0.0142
3.5205	0.168834	0.107091	0.1694	0.470014	0.008797	0.040974	0.084102	0.058014	0.00328	0.000419	0.212186	0.211141	0.002839	0.199133	0.018732	0.014602
3.521	0.170816	0.107492	0.170993	0.471619	0.008917	0.040408	0.085488	0.058662	0.003305	0.000353	0.212002	0.211768	0.002856	0.20165	0.019115	0.015013
3.5215	0.172804	0.107885	0.17258	0.473202	0.009045	0.039864	0.086876	0.059317	0.00333	0.000286	0.211818	0.212377	0.002877	0.204169	0.019506	0.015436
3.522	0.174797	0.108269	0.174163	0.474763	0.009181	0.039341	0.088267	0.059979	0.003357	0.000218	0.211633	0.212969	0.0029	0.206689	0.019904	0.015869
3.5225	0.176795	0.108643	0.175741	0.476302	0.009327	0.038842	0.089661	0.060648	0.003385	0.000149	0.211446	0.213542	0.002926	0.209211	0.02031	0.016313
3.523	0.178798	0.109007	0.177313	0.47782	0.009482	0.038366	0.091056	0.061326	0.003415	7.9e-05	0.211259	0.214097	0.002955	0.211733	0.020724	0.016768
3.5235	0.180804	0.109361	0.178879	0.479318	0.009646	0.037914	0.092452	0.062011	0.003446	8e-06	0.21107	0.214633	0.002988	0.214256	0.021145	0.017235
3.524	0.182812	0.109705	0.180438	0.480796	0.00982	0.037487	0.09385	0.062704	0.003478	0	0.210881	0.215151	0.003024	0.216779	0.021574	0.017713
3.5245	0.184824	0.110038	0.18199	0.482254	0.010005	0.037085	0.095248	0.063405	0.003512	0	0.21069	0.21565	0.003063	0.2193	0.022011	0.018203
3.525	0.186837	0.11036	0.183535	0.483692	0.010199	0.036709	0.096647	0.064116	0.003547	0	0.210499	0.216129	0.003105	0.22182	0.022455	0.018705
3.5255	0.188851	0.11067	0.185072	0.485111	0.010404	0.03636	0.098045	0.064835	0.003584	0	0.210306	0.21659	0.003151	0.224339	0.022908	0.019219
3.526	0.190866	0.110969	0.186601	0.48651	0.01062	0.036039	0.099444	0.065563	0.003622	0	0.210113	0.217032	0.003201	0.226854	0.023369	0.019746
3.5265	0.19288	0.111256	0.188121	0.48789	0.010846	0.035745	0.100843	0.066301	0.003662	0	0.209918	0.217454	0.003255	0.229366	0.023839	0.020285
3.527	0.194895	0.111531	0.189631	0.489252	0.011084	0.035481	0.102241	0.067049	0.003704	0	0.209722	0.217857	0.003313	0.231874	0.024317	0.020838
3.5275	0.196909	0.111793	0.191132	0.490595	0.011334	0.035246	0.103638	0.067806	0.003748	0	0.209525	0.218242	0.003374	0.234378	0.024803	0.021403
3.528	0.198922	0.112041	0.192623	0.49192	0.011595	0.035041	0.105034	0.068574	0.003793	0	0.209327	0.218607	0.00344	0.236875	0.025299	0.021982
3.5285	0.200934	0.112277	0.194102	0.493227	0.011869	0.034867	0.10643	0.069352	0.00384	0	0.209127	0.218953	0.00351	0.239368	0.025803	0.022575
3.529	0.202946	0.112499	0.19557	0.494516	0.012154	0.034724	0.107824	0.070141	0.00389	0	0.208925	0.219281	0.003584	0.241853	0.026316	0.023181
3.5295	0.204957	0.112707	0.197026	0.495787	0.012452	0.034614	0.109216	0.070941	0.003941	0	0.208721	0.219589	0.003663	0.244332	0.026838	0.023802
3.53	0.206968	0.112902	0.19847	0.497041	0.012763	0.034537	0.110607	0.071752	0.003994	0	0.208516	0.219879	0.003747	0.246804	0.02737	0.024436
3.5305	0.208978	0.113083	0.1999	0.498277	0.013086	0.034493	0.111995	0.072575	0.00405	0	0.208308	0.22015	0.003835	0.249268	0.027911	0.025085
3.531	0.210989	0.11325	0.201318	0.499497	0.013423	0.034483	0.113381	0.073409	0.004108	0	0.208097	0.220402	0.003929	0.251723	0.028462	0.025749
3.5315	0.213	0.113403	0.202721	0.5007	0.013773	0.034508	0.114764	0.074254	0.004167	0	0.207884	0.220635	0.004027	0.25417	0.029022	0.026428
3.532	0.215012	0.113543	0.204109	0.501886	0.014137	0.034569	0.116144	0.075112	0.00423	0	0.207667	0.22085	0.00413	0.256608	0.029592	0.027122
3.5325	0.217025	0.113668	0.205483	0.503057	0.014514	0.034666	0.11752	0.075982	0.004294	0	0.207449	0.221048	0.004239	0.259035	0.030172	0.027831
3.533	0.219039	0.11378	0.206842	0.504211	0.014906	0.034799	0.118893	0.076864	0.004361	0	0.207227	0.221227	0.004353	0.261453	0.030762	0.028556
3.5335	0.221054	0.113878	0.208185	0.50535	0.015312	0.03497	0.120262	0.077759	0.00443	0	0.207004	0.221389	0.004473	0.26386	0.031363	0.029296
3.534	0.223071	0.113962	0.209512	0.506473	0.015732	0.03518	0.121627	0.078666	0.004502	0	0.206778	0.221533	0.004598	0.266256	0.031973	0.030053
3.5345	0.225091	0.114033	0.210823	0.50758	0.016168	0.035427	0.122988	0.079586	0.004577	0	0.206551	0.22166	0.00473	0.268642	0.032595	0.030826
3.535	0.227115	0.11409	0.212118	0.508672	0.016618	0.035714	0.124344	0.080518	0.004654	0	0.206323	0.22177	0.004867	0.271017	0.033227	0.031615
3.5355	0.229143	0.114134	0.213396	0.509748	0.017084	0.036041	0.125695	0.081463	0.004734	0	0.206093	0.221863	0.005011	0.27338	0.033869	0.032421
3.536	0.231176	0.114164	0.214659	0.510809	0.017565	0.036409	0.127041	0.082421	0.004816	0	0.205862	0.22194	0.00516	0.275733	0.034523	0.033244
3.5365	0.233215	0.114182	0.215905	0.511856	0.018062	0.036817	0.128381	0.083392	0.004901	0	0.20563	0.222001	0.005317	0.278076	0.035189	0.034084
3.537	0.23526	0.114187	0.217137	0.512887	0.018574	0.037267	0.129716	0.084376	0.00499	0	0.205397	0.222047	0.005479	0.280407	0.035866	0.034941
3.5375	0.237313	0.114179	0.218352	0.513904	0.019103	0.037759	0.131045	0.085373	0.005081	0	0.205165	0.222079	0.005649	0.282728	0.036555	0.035815
3.538	0.239374	0.114159	0.219554	0.514907	0.019649	0.038294	0.132367	0.086384	0.005175	0	0.204932	0.222096	0.005825	0.285039	0.037255	0.036707
3.5385	0.241444	0.114128	0.22074	0.515895	0.02021	0.038872	0.133683	0.087408	0.005272	0	0.204699	0.2221	0.006009	0.287339	0.037969	0.037617
3.539	0.243522	0.114084	0.221913	0.516868	0.020789	0.039494	0.134991	0.088445	0.005373	0	0.204467	0.222091	0.0062	0.289628	0.038695	0.038545
3.5395	0.24561	0.114028	0.223072	0.517826	0.021385	0.04016	0.136292	0.089496	0.005477	0	0.204235	0.22207	0.006398	0.291907	0.039434	0.039491
3.54	0.247708	0.113961	0.224219	0.51877	0.021998	0.040871	0.137584	0.09056	0.005584	0	0.204004	0.222037	0.006603	0.294176	0.040186	0.040455
3.5405	0.249817	0.113883	0.225354	0.519699	0.022628	0.041628	0.138867	0.091638	0.005694	0	0.203774	0.221992	0.006816	0.296434	0.040951	0.041438
3.541	0.251935	0.113793	0.226477	0.520613	0.023276	0.04243	0.140141	0.092729	0.005807	0	0.203544	0.221936	0.007037	0.298683	0.041731	0.042439
3.5415	0.254064	0.113694	0.227589	0.521513	0.023941	0.043279	0.141405	0.093834	0.005925	0	0.203316	0.22187	0.007266	0.300921	0.042524	0.04346
3.542	0.256204	0.113584	0.228691	0.522398	0.024625	0.044175	0.142659	0.094953	0.006045	0	0.203089	0.221793	0.007503	0.30315	0.043331	0.044499
3.5425	0.258354	0.113465	0.229783	0.523268	0.025327	0.045119	0.143902	0.096085	0.006169	0	0.202862	0.221707	0.007748	0.305368	0.044152	0.045558
3.543	0.260514	0.113336	0.230865	0.524124	0.026047	0.046111	0.145132	0.09723	0.006297	0	0.202637	0.221611	0.008002	0.307577	0.044988	0.046636
3.5435	0.262685	0.1132	0.231938	0.524967	0.026785	0.047151	0.146351	0.098389	0.006429	0	0.202414	0.221505	0.008264	0.309776	0.045839	0.047734
3.544	0.264866	0.113055	0.233002	0.525797	0.027542	0.04824	0.147556	0.099561	0.006564	0	0.202191	0.22139	0.008535	0.311966	0.046705	0.048852
3.5445	0.267057	0.112903	0.234057	0.526615	0.028318	0.049379	0.148748	0.100746	0.006703	0	0.201971	0.221266	0.008815	0.314146	0.047587	0.049989
3.545	0.269257	0.112743	0.235104	0.527421	0.029113	0.050568	0.149926	0.101944	0.006846	0	0.201753	0.221133	0.009104	0.316316	0.048483	0.051147
3.5455	0.271467	0.112578	0.236142	0.528216	0.029926	0.051808	0.151088	0.103154	0.006993	0	0.201537	0.220992	0.009402	0.318476	0.049396	0.052325
3.546	0.273685	0.112405	0.237172	0.529002	0.030759	0.053098	0.152236	0.104378	0.007144	0	0.201325	0.220842	0.00971	0.320627	0.050325	0.053524
3.5465	0.275912	0.112228	0.238193	0.529778	0.031612	0.054441	0.153366	0.105614	0.0073	0	0.201116	0.220684	0.010027	0.322767	0.051271	0.054744
3.547	0.278147	0.112044	0.239207	0.530546	0.032484	0.055835	0.154481	0.106862	0.007459	0	0.200911	0.220518	0.010354	0.324896	0.052233	0.055985
3.5475	0.280389	0.111856	0.240212	0.531307	0.033375	0.057282	0.155577	0.108123	0.007622	0	0.20071	0.220344	0.010691	0.327015	0.053213	0.057247
3.548	0.282638	0.111662	0.24121	0.532062	0.034286	0.058782	0.156657	0.109395	0.00779	0	0.200514	0.220162	0.011038	0.329122	0.054209	0.058531
3.5485	0.284894	0.111464	0.2422	0.532811	0.035217	0.060336	0.157718	0.110679	0.007962	0	0.200323	0.219974	0.011395	0.331218	0.055223	0.059836
3.549	0.287155	0.111262	0.243182	0.533555	0.036167	0.061943	0.158761	0.111975	0.008138	0	0.200138	0.219779	0.011762	0.333301	0.056255	0.061163
3.5495	0.289421	0.111057	0.244156	0.534295	0.037138	0.063604	0.159787	0.113282	0.008319	0	0.199958	0.219576	0.01214	0.335371	0.057305	0.062513
3.55	0.291692	0.110848	0.245123	0.53503	0.038129	0.06532	0.160793	0.114599	0.008504	0	0.199784	0.219367	0.012529	0.337428	0.058374	0.063884
3.5505	0.293967	0.110635	0.246081	0.535761	0.03914	0.06709	0.161782	0.115928	0.008694	0	0.199616	0.219152	0.012928	0.33947	0.05946	0.065278
3.551	0.296244	0.11042	0.247032	0.536488	0.040171	0.068916	0.162751	0.117267	0.008888	0	0.199456	0.21893	0.013339	0.341498	0.060566	0.066694
3.5515	0.298524	0.110203	0.247974	0.53721	0.041222	0.070797	0.163703	0.118617	0.009087	0	0.199302	0.218701	0.01376	0.34351	0.06169	0.068134
3.552	0.300805	0.109983	0.248909	0.537928	0.042294	0.072734	0.164635	0.119976	0.009291	0	0.199156	0.218466	0.014193	0.345505	0.062834	0.069596
3.5525	0.303087	0.109762	0.249836	0.53864	0.043386	0.074726	0.165548	0.121345	0.009499	0	0.199019	0.218224	0.014637	0.347483	0.063997	0.071082
3.553	0.305368	0.109539	0.250754	0.539346	0.044499	0.076776	0.166442	0.122723	0.009712	0	0.198891	0.217975	0.015092	0.349443	0.065179	0.072591
3.5535	0.307647	0.109315	0.251665	0.540046	0.045632	0.078881	0.167317	0.124111	0.00993	0	0.198772	0.21772	0.01556	0.351385	0.066381	0.074123
3.554	0.309923	0.10909	0.252568	0.540739	0.046786	0.081044	0.168172	0.125507	0.010153	0	0.198664	0.217458	0.016039	0.353308	0.067603	0.075679
3.5545	0.312195	0.108865	0.253463	0.541424	0.047961	0.083263	0.169007	0.126912	0.01038	0	0.198567	0.21719	0.01653	0.355212	0.068845	0.077259
3.555	0.314461	0.10864	0.25435	0.542099	0.049156	0.08554	0.169823	0.128325	0.010612	0	0.19848	0.216914	0.017033	0.357095	0.070108	0.078863
3.5555	0.316721	0.108415	0.255229	0.542764	0.050373	0.087874	0.170619	0.129746	0.01085	0	0.198405	0.216633	0.017548	0.358958	0.07139	0.08049
3.556	0.318972	0.108191	0.256099	0.543417	0.05161	0.090265	0.171396	0.131175	0.011092	0	0.198343	0.216346	0.018075	0.360801	0.072693	0.082142
3.5565	0.321213	0.107967	0.256962	0.544058	0.052868	0.092714	0.172152	0.132611	0.01134	0	0.198292	0.216053	0.018615	0.362622	0.074016	0.083817
3.557	0.323443	0.107743	0.257815	0.544686	0.054148	0.095221	0.172889	0.134054	0.011592	0	0.198253	0.215754	0.019168	0.364423	0.07536	0.085517
3.5575	0.32566	0.107521	0.25866	0.545298	0.055449	0.097785	0.173607	0.135504	0.01185	0	0.198227	0.215451	0.019733	0.366201	0.076725	0.08724
3.558	0.327863	0.1073	0.259496	0.545894	0.05677	0.100407	0.174305	0.136961	0.012113	0	0.198214	0.215142	0.020311	0.367958	0.07811	0.088987
3.5585	0.330049	0.10708	0.260323	0.546473	0.058113	0.103087	0.174983	0.138424	0.012381	0	0.198214	0.21483	0.020902	0.369692	0.079516	0.090759
3.559	0.332216	0.106863	0.26114	0.547033	0.059477	0.105825	0.175643	0.139892	0.012655	0	0.198226	0.214514	0.021506	0.371404	0.080943	0.092554
3.5595	0.334363	0.106647	0.261947	0.547572	0.060863	0.108621	0.176283	0.141366	0.012934	0	0.198251	0.214194	0.022123	0.373093	0.08239	0.094372
3.56	0.336488	0.106434	0.262744	0.54809	0.062269	0.111474	0.176905	0.142845	0.013219	0	0.198289	0.213871	0.022753	0.374758	0.083858	0.096215
3.5605	0.338588	0.106223	0.263531	0.548584	0.063697	0.114385	0.177507	0.144329	0.013509	0	0.198339	0.213545	0.023396	0.376399	0.085347	0.098081
3.561	0.340662	0.106015	0.264307	0.549054	0.065146	0.117353	0.178091	0.145817	0.013805	0	0.198402	0.213217	0.024053	0.378016	0.086856	0.099971
3.5615	0.342708	0.10581	0.265074	0.549498	0.066617	0.120379	0.178656	0.147309	0.014106	0	0.198476	0.212887	0.024723	0.379608	0.088386	0.101884
3.562	0.344722	0.105609	0.265831	0.549915	0.068109	0.123462	0.179202	0.148805	0.014413	0	0.198563	0.212555	0.025407	0.381174	0.089936	0.10382
3.5625	0.346704	0.10541	0.266578	0.550303	0.069622	0.126602	0.179728	0.150303	0.014726	0	0.198661	0.212221	0.026104	0.382714	0.091507	0.105779
3.563	0.34865	0.105216	0.267315	0.550662	0.071157	0.129798	0.180236	0.151804	0.015045	0	0.198771	0.211886	0.026815	0.384227	0.093098	0.107761
3.5635	0.350559	0.105024	0.268043	0.550992	0.072713	0.133051	0.180724	0.153308	0.01537	0	0.198891	0.211551	0.02754	0.385712	0.094709	0.109765
3.564	0.352428	0.104837	0.268761	0.551291	0.07429	0.136361	0.181193	0.154813	0.015701	0	0.199022	0.211214	0.028279	0.387169	0.096341	0.111792
3.5645	0.354255	0.104653	0.26947	0.551559	0.075889	0.139726	0.181643	0.156319	0.016038	0	0.199163	0.210877	0.029031	0.388597	0.097993	0.11384
3.565	0.356038	0.104474	0.270169	0.551797	0.07751	0.143146	0.182072	0.157825	0.01638	0	0.199314	0.210539	0.029798	0.389995	0.099666	0.115909
3.5655	0.357776	0.104298	0.27086	0.552002	0.079151	0.146622	0.182482	0.159332	0.016729	0	0.199474	0.2102	0.030578	0.391363	0.101358	0.117999
3.566	0.359466	0.104127	0.271542	0.552175	0.080814	0.150152	0.182872	0.160839	0.017085	0	0.199643	0.209862	0.031372	0.3927	0.103071	0.120111
3.5665	0.361107	0.103959	0.272216	0.552315	0.082498	0.153736	0.183241	0.162346	0.017446	0	0.199821	0.209523	0.03218	0.394005	0.104805	0.122242
3.567	0.362697	0.103796	0.272882	0.552423	0.084203	0.157374	0.183589	0.163851	0.017814	0	0.200007	0.209184	0.033003	0.395278	0.106559	0.124394
3.5675	0.364234	0.103637	0.273539	0.552496	0.085929	0.161065	0.183917	0.165355	0.018188	0	0.200201	0.208844	0.033839	0.396517	0.108333	0.126565
3.568	0.365716	0.103482	0.27419	0.552535	0.087676	0.164809	0.184222	0.166857	0.018568	0	0.200402	0.208504	0.034689	0.397721	0.110128	0.128756
3.5685	0.367141	0.103331	0.274832	0.55254	0.089444	0.168605	0.184505	0.168357	0.018955	0.000201	0.200611	0.208164	0.035553	0.39889	0.111943	0.130966
3.569	0.368507	0.103184	0.275468	0.55251	0.091233	0.172451	0.184766	0.169856	0.019349	0.000496	0.200826	0.207824	0.036431	0.400021	0.113779	0.133194
3.5695	0.369812	0.103042	0.276096	0.552445	0.093044	0.176349	0.185003	0.171351	0.019749	0.000805	0.201047	0.207483	0.037324	0.401115	0.115636	0.135441
3.57	0.371055	0.102903	0.276717	0.552345	0.094875	0.180296	0.185217	0.172844	0.020156	0.001127	0.201273	0.207141	0.03823	0.402169	0.117513	0.137706
3.5705	0.372234	0.10277	0.277332	0.55221	0.096728	0.184293	0.185406	0.174333	0.02057	0.001463	0.201505	0.2068	0.03915	0.403182	0.119411	0.139988
3.571	0.373347	0.102641	0.277939	0.55204	0.098602	0.188337	0.18557	0.175818	0.02099	0.001813	0.201741	0.206458	0.040084	0.404154	0.121331	0.142287
3.5715	0.374393	0.102516	0.27854	0.551834	0.100496	0.192429	0.185709	0.177299	0.021418	0.002177	0.201981	0.206117	0.041031	0.405081	0.123271	0.144603
3.572	0.375371	0.102397	0.279134	0.551594	0.102412	0.196568	0.185822	0.178775	0.021852	0.002556	0.202225	0.205776	0.041992	0.405964	0.125232	0.146935
3.5725	0.37628	0.102283	0.279721	0.551318	0.104349	0.200752	0.185909	0.180246	0.022294	0.00295	0.202472	0.205435	0.042967	0.406801	0.127213	0.149282
3.573	0.37712	0.102174	0.280301	0.551007	0.106307	0.20498	0.185971	0.181712	0.022743	0.003359	0.20272	0.205095	0.043955	0.40759	0.129216	0.151646
3.5735	0.37789	0.10207	0.280875	0.550662	0.108286	0.209251	0.186007	0.183173	0.023199	0.003784	0.202971	0.204756	0.044957	0.408331	0.131239	0.154024
3.574	0.37859	0.101972	0.281444	0.550283	0.110286	0.213565	0.186017	0.184629	0.023663	0.004225	0.203221	0.204418	0.045972	0.409021	0.133282	0.156416
3.5745	0.37922	0.101879	0.282007	0.549869	0.112308	0.21792	0.186001	0.186079	0.024134	0.004681	0.203472	0.204081	0.047	0.409659	0.135346	0.158823
3.575	0.379781	0.101793	0.282565	0.549421	0.114351	0.222314	0.185959	0.187524	0.024612	0.005154	0.203722	0.203745	0.048041	0.410244	0.137431	0.161243
3.5755	0.380272	0.101712	0.28312	0.548939	0.116415	0.226747	0.185892	0.188963	0.025099	0.005644	0.20397	0.203411	0.049095	0.410775	0.139535	0.163676
3.576	0.380693	0.101637	0.28367	0.548423	0.118502	0.231218	0.185799	0.190395	0.025593	0.006151	0.204216	0.203079	0.050161	0.411248	0.14166	0.166122
3.5765	0.381043	0.101568	0.284219	0.547872	0.120609	0.235724	0.18568	0.191822	0.026095	0.006675	0.204457	0.202749	0.051241	0.411663	0.143804	0.16858
3.577	0.381324	0.101505	0.284764	0.547288	0.122739	0.240266	0.185535	0.193242	0.026604	0.007218	0.204694	0.202421	0.052332	0.412018	0.145967	0.171049
3.5775	0.381535	0.101449	0.285308	0.546669	0.12489	0.24484	0.185364	0.194656	0.027122	0.007778	0.204926	0.202095	0.053436	0.41231	0.14815	0.17353
3.578	0.381676	0.101399	0.285849	0.546017	0.127063	0.249446	0.185168	0.196064	0.027648	0.008357	0.20515	0.201773	0.054552	0.41254	0.150352	0.176021
3.5785	0.381748	0.101355	0.28639	0.54533	0.129258	0.254083	0.184946	0.197466	0.028182	0.008954	0.205367	0.201453	0.05568	0.412704	0.152572	0.178522
3.579	0.381752	0.101318	0.286929	0.54461	0.131475	0.258748	0.1847	0.198861	0.028725	0.009571	0.205576	0.201136	0.05682	0.412801	0.154811	0.181032
3.5795	0.381689	0.101287	0.287468	0.543855	0.133714	0.26344	0.184429	0.20025	0.029276	0.010207	0.205776	0.200822	0.057971	0.41283	0.157067	0.183551
3.58	0.38156	0.101262	0.288005	0.543065	0.135974	0.268158	0.184133	0.201634	0.029835	0.010862	0.205965	0.200512	0.059134	0.412789	0.159342	0.186079
3.5805	0.381367	0.101244	0.288542	0.542239	0.138257	0.2729	0.183815	0.203011	0.030403	0.011538	0.206144	0.200205	0.060307	0.412678	0.161635	0.188614
3.581	0.381112	0.101232	0.289078	0.541378	0.140562	0.277665	0.183474	0.204383	0.030979	0.012235	0.206311	0.199903	0.061492	0.412494	0.163945	0.191157
3.5815	0.380795	0.101227	0.289614	0.540479	0.142888	0.28245	0.183112	0.205749	0.031565	0.012952	0.206466	0.199605	0.062688	0.412237	0.166273	0.193707
3.582	0.38042	0.101229	0.290149	0.539542	0.145237	0.287254	0.182729	0.207108	0.032159	0.013691	0.206608	0.199312	0.063893	0.411906	0.168619	0.196264
3.5825	0.379988	0.101237	0.290684	0.538566	0.147607	0.292076	0.182326	0.208462	0.032762	0.014451	0.206737	0.199023	0.06511	0.4115	0.170982	0.198827
3.583	0.3795	0.101252	0.291218	0.537549	0.149999	0.296913	0.181904	0.209809	0.033374	0.015233	0.206852	0.19874	0.066336	0.411018	0.173362	0.201396
3.5835	0.37896	0.101273	0.291752	0.536491	0.152414	0.301763	0.181464	0.211149	0.033996	0.016037	0.206953	0.198461	0.067572	0.410462	0.17576	0.203971
3.584	0.378368	0.101301	0.292286	0.53539	0.154849	0.306625	0.181007	0.212483	0.034627	0.016864	0.20704	0.198189	0.068817	0.40983	0.178174	0.20655
3.5845	0.377726	0.101336	0.292818	0.534244	0.157307	0.311497	0.180534	0.21381	0.035268	0.017714	0.207113	0.197922	0.070072	0.409124	0.180606	0.209135
3.585	0.377037	0.101378	0.29335	0.533052	0.159786	0.316376	0.180045	0.21513	0.035918	0.018587	0.207171	0.197661	0.071336	0.408344	0.183053	0.211723
3.5855	0.376302	0.101426	0.293881	0.531812	0.162286	0.321261	0.179542	0.216443	0.036579	0.019484	0.207213	0.197407	0.072609	0.407492	0.185517	0.214315
3.586	0.375522	0.101481	0.294409	0.530523	0.164808	0.326148	0.179025	0.217748	0.037249	0.020405	0.207241	0.19716	0.07389	0.406567	0.187997	0.21691
3.5865	0.374701	0.101543	0.294936	0.529184	0.167351	0.331037	0.178495	0.219044	0.03793	0.02135	0.207253	0.196922	0.07518	0.405572	0.190492	0.219508
3.587	0.373839	0.101611	0.295461	0.527794	0.169915	0.335924	0.177953	0.220333	0.038621	0.022321	0.207249	0.196691	0.076478	0.404508	0.193003	0.222107
3.5875	0.372939	0.101686	0.295982	0.526351	0.1725	0.340808	0.1774	0.221613	0.039322	0.023316	0.207229	0.196469	0.077783	0.403375	0.195527	0.224709
3.588	0.372003	0.101768	0.296501	0.524854	0.175105	0.345686	0.176836	0.222883	0.040034	0.024337	0.207192	0.196256	0.079096	0.402178	0.198067	0.227312
3.5885	0.371032	0.101856	0.297016	0.523304	0.177731	0.350558	0.176263	0.224145	0.040757	0.025384	0.207138	0.196053	0.080416	0.400917	0.20062	0.229916
3.589	0.370028	0.101951	0.297527	0.521698	0.180378	0.35542	0.175682	0.225396	0.041491	0.026457	0.207066	0.19586	0.081742	0.399596	0.203187	0.23252
3.5895	0.368993	0.102053	0.298034	0.520038	0.183045	0.360272	0.175092	0.226637	0.042236	0.027556	0.206976	0.195678	0.083074	0.398217	0.205767	0.235126
3.59	0.367927	0.102161	0.298537	0.518321	0.185732	0.365111	0.174496	0.227868	0.042992	0.028683	0.206867	0.195507	0.084413	0.396782	0.208361	0.237732
3.5905	0.366834	0.102276	0.299034	0.516548	0.18844	0.369936	0.173894	0.229088	0.04376	0.029837	0.206738	0.195347	0.085757	0.395294	0.210968	0.24034
3.591	0.365713	0.102397	0.299526	0.51472	0.191167	0.374744	0.173286	0.230297	0.044539	0.031019	0.206589	0.195199	0.087106	0.393754	0.213588	0.242949
3.5915	0.364568	0.102525	0.300012	0.512837	0.193914	0.379534	0.172675	0.231495	0.045331	0.032228	0.206419	0.195065	0.088459	0.392167	0.216223	0.245558
3.592	0.363399	0.102659	0.300491	0.510898	0.196681	0.384303	0.17206	0.232683	0.046134	0.033467	0.206228	0.194943	0.089817	0.390533	0.218871	0.248169
3.5925	0.362208	0.102799	0.300964	0.508906	0.199466	0.389051	0.171442	0.233859	0.046949	0.034734	0.206015	0.194835	0.091178	0.388855	0.221534	0.250781
3.593	0.360996	0.102946	0.30143	0.50686	0.202271	0.393774	0.170823	0.235024	0.047777	0.03603	0.20578	0.194741	0.092542	0.387135	0.224211	0.253395
3.5935	0.359764	0.103098	0.301889	0.504761	0.205094	0.398472	0.170202	0.236179	0.048618	0.037356	0.205522	0.194661	0.093909	0.385375	0.226904	0.25601
3.594	0.358515	0.103257	0.302343	0.502611	0.207937	0.403142	0.169581	0.237322	0.049471	0.038712	0.20524	0.194597	0.095279	0.383579	0.229611	0.258626
3.5945	0.357248	0.103422	0.30279	0.50041	0.210798	0.407783	0.168961	0.238454	0.050336	0.040098	0.204936	0.194547	0.09665	0.381746	0.232334	0.261245
3.595	0.355966	0.103592	0.303232	0.498158	0.213678	0.412393	0.168341	0.239575	0.051215	0.041516	0.204608	0.194513	0.098023	0.379881	0.235072	0.263865
3.5955	0.354669	0.103769	0.303669	0.495856	0.216577	0.41697	0.167723	0.240684	0.052107	0.042964	0.204256	0.194494	0.099397	0.377986	0.237827	0.266488
3.596	0.353357	0.103951	0.304101	0.493507	0.219495	0.421513	0.167107	0.241782	0.053012	0.044444	0.203882	0.194491	0.100771	0.376061	0.240597	0.269114
3.5965	0.352033	0.104139	0.30453	0.49111	0.22243	0.426022	0.166494	0.242869	0.05393	0.045956	0.203484	0.194504	0.102147	0.374109	0.243385	0.271743
3.597	0.350696	0.104332	0.304954	0.488666	0.225384	0.430494	0.165885	0.243944	0.054862	0.0475	0.203063	0.194533	0.103522	0.372131	0.24619	0.274376
3.5975	0.349347	0.104531	0.305375	0.486178	0.228356	0.434929	0.165279	0.245006	0.055808	0.049077	0.202619	0.194578	0.104898	0.370131	0.249014	0.277014
3.598	0.347988	0.104735	0.305792	0.483646	0.231346	0.439326	0.164677	0.246057	0.056767	0.050687	0.202152	0.194638	0.106273	0.368108	0.251856	0.279656
3.5985	0.346619	0.104944	0.306207	0.48107	0.234353	0.443684	0.16408	0.247096	0.057741	0.05233	0.201662	0.194714	0.107648	0.366065	0.254718	0.282304
3.599	0.34524	0.105159	0.306619	0.478452	0.237379	0.448002	0.163488	0.248123	0.058729	0.054007	0.201149	0.194807	0.109022	0.364004	0.257602	0.284957
3.5995	0.343853	0.105378	0.30703	0.475794	0.240421	0.452279	0.162901	0.249138	0.059732	0.055718	0.200613	0.194914	0.110395	0.361925	0.260506	0.287618
3.6	0.342458	0.105601	0.307439	0.473096	0.243482	0.456513	0.16232	0.250141	0.060749	0.057462	0.200056	0.195038	0.111766	0.35983	0.263433	0.290285
3.6005	0.341056	0.105829	0.307848	0.470359	0.246561	0.460703	0.161744	0.251131	0.06178	0.059241	0.199476	0.195177	0.113137	0.357719	0.266382	0.292961
3.601	0.339647	0.106061	0.308257	0.467586	0.249657	0.464849	0.161175	0.25211	0.062827	0.061055	0.198874	0.195333	0.114506	0.355596	0.269355	0.295644
3.6015	0.338232	0.106297	0.308667	0.464777	0.252772	0.468947	0.160612	0.253076	0.063889	0.062904	0.198251	0.195504	0.115873	0.35346	0.272352	0.298336
3.602	0.336812	0.106536	0.309079	0.461934	0.255905	0.472997	0.160056	0.254029	0.064965	0.064788	0.197607	0.195692	0.117239	0.351313	0.275373	0.301037
3.6025	0.335386	0.106779	0.309495	0.459058	0.259056	0.476997	0.159507	0.25497	0.066057	0.066707	0.196942	0.195896	0.118604	0.349156	0.27842	0.303746
3.603	0.333956	0.107025	0.309915	0.45615	0.262225	0.480945	0.158966	0.255897	0.067165	0.068662	0.196256	0.196115	0.119967	0.346991	0.281492	0.306466
3.6035	0.332522	0.107274	0.31034	0.453212	0.265413	0.484839	0.158433	0.256811	0.068288	0.070653	0.195549	0.196351	0.121329	0.344819	0.28459	0.309194
3.604	0.331084	0.107526	0.310771	0.450244	0.268619	0.488677	0.157908	0.257711	0.069427	0.072679	0.194821	0.196603	0.12269	0.342641	0.287713	0.311931
3.6045	0.329643	0.10778	0.311208	0.447248	0.271843	0.492457	0.157391	0.258597	0.070581	0.074742	0.194073	0.196871	0.12405	0.340458	0.290863	0.314678
3.605	0.3282	0.108036	0.311652	0.444226	0.275085	0.496177	0.156883	0.259469	0.071751	0.076842	0.193304	0.197155	0.125408	0.338272	0.29404	0.317435
3.6055	0.326756	0.108295	0.312104	0.441177	0.278346	0.499835	0.156385	0.260327	0.072938	0.078977	0.192514	0.197456	0.126766	0.336084	0.297242	0.3202
3.606	0.325312	0.108554	0.312565	0.438103	0.281625	0.503427	0.155896	0.26117	0.07414	0.08115	0.191703	0.197773	0.128122	0.333896	0.300471	0.322975
3.6065	0.323869	0.108815	0.313034	0.435006	0.284922	0.506952	0.155417	0.262	0.075359	0.083359	0.190872	0.198106	0.129478	0.331707	0.303727	0.32576
3.607	0.322427	0.109076	0.313512	0.431888	0.288237	0.510407	0.154948	0.262816	0.076594	0.085605	0.190019	0.198455	0.130833	0.32952	0.307009	0.328554
3.6075	0.320987	0.109337	0.314001	0.428749	0.29157	0.513789	0.154488	0.263618	0.077845	0.087889	0.189145	0.19882	0.132187	0.327335	0.310317	0.33136
3.608	0.31955	0.109597	0.314499	0.425592	0.29492	0.517097	0.154039	0.264407	0.079113	0.090209	0.188249	0.199202	0.133541	0.325154	0.313653	0.334177
3.6085	0.318117	0.109857	0.315007	0.422419	0.298287	0.520328	0.1536	0.265182	0.080398	0.092566	0.187331	0.1996	0.134894	0.322977	0.317015	0.337006
3.609	0.316688	0.110115	0.315527	0.419231	0.301672	0.523481	0.153172	0.265946	0.081699	0.094961	0.186392	0.200014	0.136246	0.320805	0.320404	0.339848
3.6095	0.315264	0.110371	0.316057	0.416031	0.305073	0.526554	0.152753	0.266699	0.083017	0.097393	0.18543	0.200444	0.137598	0.318639	0.323821	0.342703
3.61	0.313847	0.110625	0.316599	0.412822	0.308492	0.529547	0.152345	0.267441	0.084352	0.099862	0.184445	0.200891	0.13895	0.316479	0.327265	0.345572
3.6105	0.312436	0.110875	0.317152	0.409604	0.311928	0.532459	0.151947	0.268175	0.085703	0.102367	0.183438	0.201355	0.140301	0.314327	0.330736	0.348455
3.611	0.311034	0.111121	0.317717	0.406381	0.315381	0.53529	0.15156	0.2689	0.087072	0.10491	0.182408	0.201835	0.141651	0.312182	0.334235	0.351353
3.6115	0.30964	0.111362	0.318294	0.403155	0.318853	0.538038	0.151182	0.269618	0.088458	0.10749	0.181354	0.202332	0.143002	0.310047	0.337762	0.354267
3.612	0.308255	0.111598	0.318885	0.399927	0.322343	0.540703	0.150815	0.270329	0.08986	0.110106	0.180278	0.202845	0.144351	0.307921	0.341315	0.357195
3.6125	0.306881	0.111828	0.319489	0.396701	0.325852	0.543286	0.150458	0.271035	0.09128	0.112759	0.179179	0.203375	0.1457	0.305805	0.344896	0.360138
3.613	0.305519	0.112051	0.320107	0.393477	0.32938	0.545784	0.150111	0.271737	0.092717	0.115448	0.178058	0.203922	0.147047	0.303701	0.348503	0.363097
3.6135	0.304168	0.112266	0.320739	0.39026	0.332929	0.548197	0.149773	0.272435	0.094171	0.118173	0.176913	0.204485	0.148394	0.301609	0.352137	0.366071
3.614	0.302829	0.112473	0.321387	0.38705	0.336497	0.550525	0.149445	0.27313	0.095643	0.120934	0.175746	0.205065	0.14974	0.29953	0.355797	0.369061
3.6145	0.301504	0.112671	0.32205	0.38385	0.340085	0.552767	0.149126	0.273825	0.097132	0.12373	0.174556	0.205661	0.151085	0.297464	0.359484	0.372065
3.615	0.300192	0.112859	0.322729	0.380662	0.343694	0.554922	0.148816	0.274519	0.098638	0.126562	0.173344	0.206275	0.152428	0.295413	0.363196	0.375084
3.6155	0.298895	0.113037	0.323424	0.377488	0.347324	0.556992	0.148515	0.275214	0.100162	0.129428	0.172111	0.206907	0.153771	0.293377	0.366933	0.378118
3.616	0.297611	0.113203	0.324136	0.374329	0.350976	0.558975	0.148221	0.275911	0.101704	0.13233	0.170857	0.207556	0.155112	0.291357	0.370696	0.381166
3.6165	0.296343	0.113358	0.324864	0.371187	0.35465	0.560874	0.147936	0.276611	0.103263	0.135265	0.169584	0.208225	0.156452	0.289352	0.374484	0.384228
3.617	0.29509	0.1135	0.32561	0.368063	0.358346	0.562689	0.147658	0.277316	0.104839	0.138234	0.16829	0.208913	0.157792	0.287363	0.378298	0.387303
3.6175	0.293852	0.11363	0.326373	0.36496	0.362066	0.564423	0.147386	0.278026	0.106433	0.141237	0.166979	0.209621	0.15913	0.285392	0.382135	0.390393
3.618	0.292629	0.113746	0.327154	0.361877	0.365808	0.566076	0.147122	0.278742	0.108044	0.144272	0.165649	0.21035	0.160468	0.283437	0.385998	0.393496
3.6185	0.291423	0.113849	0.327953	0.358818	0.369576	0.567651	0.146863	0.279466	0.109673	0.14734	0.164303	0.211101	0.161804	0.2815	0.389885	0.396612
3.619	0.290232	0.113937	0.32877	0.355783	0.373367	0.56915	0.146609	0.280197	0.111319	0.15044	0.16294	0.211874	0.16314	0.27958	0.393796	0.399741
3.6195	0.289057	0.114011	0.329605	0.352772	0.377184	0.570575	0.146361	0.280937	0.112982	0.153571	0.161561	0.212671	0.164474	0.277678	0.397731	0.402881
3.62	0.287898	0.11407	0.330459	0.349789	0.381027	0.571927	0.146116	0.281686	0.114664	0.156732	0.160168	0.213492	0.165808	0.275794	0.401689	0.406033
3.6205	0.286755	0.114114	0.331333	0.346833	0.384896	0.573207	0.145876	0.282446	0.116363	0.159924	0.15876	0.214338	0.16714	0.273928	0.405671	0.409197
3.621	0.285627	0.114144	0.332226	0.343906	0.388793	0.574418	0.145638	0.283216	0.118079	0.163145	0.157339	0.215209	0.16847	0.27208	0.409675	0.41237
3.6215	0.284516	0.114158	0.333138	0.34101	0.392717	0.575561	0.145403	0.283998	0.119814	0.166395	0.155906	0.216107	0.169799	0.27025	0.413702	0.415553
3.622	0.28342	0.114158	0.33407	0.338146	0.396669	0.576637	0.145169	0.284792	0.121567	0.169674	0.154461	0.217032	0.171126	0.268438	0.417752	0.418746
3.6225	0.28234	0.114143	0.335022	0.335314	0.400651	0.577647	0.144936	0.285597	0.123338	0.17298	0.153005	0.217985	0.172451	0.266644	0.421822	0.421946
3.623	0.281275	0.114114	0.335993	0.332517	0.404662	0.578593	0.144704	0.286416	0.125127	0.176313	0.15154	0.218966	0.173773	0.264868	0.425914	0.425153
3.6235	0.280225	0.11407	0.336982	0.329754	0.408704	0.579475	0.144472	0.287248	0.126934	0.179672	0.150065	0.219975	0.175094	0.263109	0.430027	0.428366
3.624	0.279191	0.114011	0.337992	0.327027	0.412776	0.580295	0.144239	0.288093	0.12876	0.183056	0.148583	0.221014	0.176412	0.261367	0.434159	0.431583
3.6245	0.278171	0.113938	0.33902	0.324337	0.416879	0.581053	0.144004	0.288953	0.130605	0.186464	0.147093	0.222082	0.177728	0.259642	0.43831	0.434805
3.625	0.277167	0.11385	0.340066	0.321684	0.421014	0.581749	0.143768	0.289827	0.132469	0.189896	0.145597	0.223179	0.179041	0.257933	0.442479	0.438029
3.6255	0.276177	0.113748	0.341132	0.31907	0.425181	0.582385	0.143529	0.290717	0.134351	0.193351	0.144096	0.224307	0.180352	0.25624	0.446666	0.441254
3.626	0.275202	0.113631	0.342215	0.316495	0.429379	0.582962	0.143288	0.291624	0.136252	0.196827	0.14259	0.225464	0.18166	0.254562	0.45087	0.444479
3.6265	0.274242	0.113501	0.343317	0.31396	0.433609	0.583479	0.143044	0.292547	0.138171	0.200323	0.14108	0.226652	0.182967	0.252899	0.455091	0.447704
3.627	0.273296	0.113357	0.344436	0.311466	0.437872	0.58394	0.142796	0.293488	0.14011	0.203839	0.139567	0.227871	0.184271	0.251251	0.459328	0.450927
3.6275	0.272364	0.113199	0.345572	0.309014	0.442167	0.584343	0.142544	0.294447	0.142068	0.207373	0.138051	0.22912	0.185573	0.249616	0.46358	0.454147
3.628	0.271446	0.113029	0.346724	0.306604	0.446494	0.584692	0.142289	0.295425	0.144044	0.210924	0.136534	0.230399	0.186874	0.247994	0.467846	0.457363
3.6285	0.270543	0.112846	0.347892	0.304238	0.450853	0.584987	0.14203	0.296423	0.14604	0.214491	0.135016	0.231709	0.188173	0.246385	0.472125	0.460574
3.629	0.269653	0.112651	0.349075	0.301917	0.455244	0.58523	0.141767	0.297441	0.148055	0.218073	0.133497	0.233049	0.189471	0.244788	0.476418	0.46378
3.6295	0.268778	0.112444	0.350273	0.29964	0.459667	0.585421	0.141501	0.29848	0.150089	0.221668	0.131979	0.23442	0.190767	0.243202	0.480723	0.466978
3.63	0.267918	0.112226	0.351484	0.297411	0.464122	0.585564	0.141231	0.29954	0.152142	0.225276	0.130463	0.235821	0.192062	0.241627	0.485039	0.470167
3.6305	0.267072	0.111997	0.352708	0.295228	0.468609	0.585659	0.140958	0.300622	0.154215	0.228894	0.128948	0.237252	0.193356	0.240061	0.489367	0.473346
3.631	0.266241	0.111758	0.353943	0.293094	0.473128	0.585709	0.140682	0.301727	0.156307	0.232523	0.127435	0.238714	0.194648	0.238506	0.493705	0.476513
3.6315	0.265425	0.111508	0.35519	0.291009	0.477677	0.585716	0.140403	0.302854	0.158419	0.23616	0.125926	0.240205	0.195939	0.236958	0.498054	0.479667
3.632	0.264624	0.111249	0.356448	0.288973	0.482259	0.585684	0.140122	0.304005	0.160551	0.239804	0.12442	0.241727	0.197229	0.235419	0.502414	0.482807
3.6325	0.263838	0.110981	0.357714	0.286988	0.486871	0.585614	0.139837	0.30518	0.162702	0.243453	0.122918	0.243278	0.198517	0.233887	0.506784	0.485931
3.633	0.263067	0.110704	0.35899	0.285055	0.491513	0.58551	0.139551	0.306379	0.164873	0.247108	0.121421	0.244859	0.199803	0.232361	0.511165	0.489038
3.6335	0.262313	0.110418	0.360274	0.283174	0.496186	0.585373	0.139263	0.307602	0.167064	0.250765	0.119929	0.24647	0.201087	0.230842	0.515557	0.492128
3.634	0.261575	0.110123	0.361564	0.281345	0.500888	0.585206	0.138972	0.30885	0.169275	0.254424	0.118443	0.24811	0.20237	0.229328	0.51996	0.4952
3.6345	0.260853	0.109821	0.362861	0.27957	0.505618	0.585012	0.138681	0.310122	0.171506	0.258083	0.116963	0.24978	0.203649	0.227819	0.524374	0.498254
3.635	0.260149	0.10951	0.364162	0.277848	0.510376	0.584794	0.138388	0.31142	0.173757	0.26174	0.115489	0.251479	0.204927	0.226315	0.528798	0.50129
3.6355	0.259463	0.109192	0.365468	0.276181	0.515161	0.584552	0.138095	0.312744	0.176028	0.265394	0.114022	0.253207	0.206202	0.224815	0.533234	0.504308
3.636	0.258795	0.108866	0.366775	0.274569	0.519972	0.584291	0.137802	0.314093	0.178319	0.269044	0.112563	0.254964	0.207474	0.223319	0.537681	0.507308
3.6365	0.258146	0.108533	0.368085	0.273012	0.524807	0.584011	0.137508	0.315467	0.180629	0.272687	0.111111	0.256749	0.208744	0.221826	0.542139	0.510289
3.637	0.257516	0.108192	0.369394	0.271512	0.529667	0.583714	0.137216	0.316868	0.182959	0.276322	0.109668	0.258563	0.210011	0.220336	0.54661	0.513251
3.6375	0.256905	0.107845	0.370702	0.270069	0.534549	0.583404	0.136924	0.318295	0.185308	0.279948	0.108233	0.260404	0.211274	0.218849	0.551093	0.516193
3.638	0.256315	0.10749	0.372008	0.268683	0.539454	0.583083	0.136633	0.319747	0.187677	0.283562	0.106807	0.262272	0.212535	0.217364	0.55559	0.519114
3.6385	0.255744	0.107128	0.37331	0.267355	0.54438	0.582752	0.136344	0.321226	0.190064	0.287163	0.10539	0.264167	0.213793	0.215882	0.560102	0.522015
3.639	0.255194	0.106759	0.374609	0.266086	0.549326	0.582416	0.136057	0.322731	0.192471	0.29075	0.103983	0.266089	0.215047	0.214402	0.564628	0.524894
3.6395	0.254664	0.106383	0.375903	0.264876	0.554292	0.582077	0.135772	0.324261	0.194896	0.29432	0.102586	0.268037	0.216298	0.212924	0.569171	0.527752
3.64	0.254155	0.106	0.377192	0.263727	0.559277	0.581737	0.135489	0.325818	0.19734	0.297873	0.101199	0.270011	0.217546	0.21145	0.57373	0.530586
3.6405	0.253667	0.105609	0.378476	0.262637	0.564278	0.581401	0.135208	0.327401	0.199803	0.301407	0.099823	0.272011	0.218791	0.209979	0.578306	0.533398
3.641	0.253201	0.105212	0.379753	0.261608	0.569296	0.581071	0.134931	0.32901	0.202284	0.30492	0.098457	0.274036	0.220032	0.208512	0.5829	0.536187
3.6415	0.252756	0.104806	0.381025	0.26064	0.574327	0.580749	0.134656	0.330645	0.204782	0.308411	0.097103	0.276087	0.221269	0.207049	0.58751	0.538952
3.642	0.252334	0.104394	0.38229	0.259733	0.579372	0.580439	0.134385	0.332305	0.207298	0.311879	0.095761	0.278163	0.222502	0.20559	0.592139	0.541694
3.6425	0.251934	0.103973	0.38355	0.258889	0.584429	0.580142	0.134117	0.333991	0.209831	0.315323	0.09443	0.280264	0.223731	0.204137	0.596784	0.544411
3.643	0.251556	0.103545	0.384803	0.258106	0.589495	0.579862	0.133852	0.335702	0.212381	0.31874	0.093111	0.28239	0.224956	0.20269	0.601447	0.547106
3.6435	0.251201	0.103109	0.38605	0.257385	0.594571	0.5796	0.133591	0.337437	0.214947	0.32213	0.091804	0.284541	0.226175	0.20125	0.606127	0.549776
3.644	0.250869	0.102665	0.387291	0.256726	0.599653	0.579358	0.133335	0.339197	0.217529	0.325491	0.09051	0.286718	0.227389	0.199817	0.610823	0.552423
3.6445	0.25056	0.102212	0.388526	0.25613	0.604742	0.57914	0.133082	0.34098	0.220125	0.328822	0.089228	0.28892	0.228598	0.198391	0.615535	0.555046
3.645	0.250274	0.101752	0.389755	0.255595	0.609835	0.578946	0.132834	0.342787	0.222736	0.332119	0.08796	0.291148	0.2298	0.196975	0.620261	0.557647
3.6455	0.250011	0.101283	0.390978	0.255123	0.614932	0.578778	0.13259	0.344615	0.225361	0.335383	0.086704	0.293402	0.230996	0.195568	0.625002	0.560223
3.646	0.249772	0.100805	0.392195	0.254713	0.62003	0.578639	0.13235	0.346465	0.227999	0.338611	0.085461	0.295682	0.232184	0.194171	0.629755	0.562776
3.6465	0.249557	0.10032	0.393406	0.254365	0.625128	0.57853	0.132115	0.348335	0.230649	0.341801	0.084232	0.297988	0.233365	0.192784	0.634521	0.565305
3.647	0.249364	0.099827	0.394611	0.254078	0.630225	0.578452	0.131884	0.350226	0.233312	0.344952	0.083016	0.300319	0.234537	0.191409	0.639297	0.56781
3.6475	0.249195	0.099325	0.395809	0.253852	0.63532	0.578408	0.131657	0.352135	0.235985	0.348061	0.081815	0.302676	0.235701	0.190045	0.644082	0.57029
3.648	0.249049	0.098816	0.397001	0.253688	0.64041	0.578399	0.131434	0.354063	0.238669	0.351127	0.080627	0.305058	0.236855	0.188694	0.648874	0.572744
3.6485	0.248926	0.098299	0.398187	0.253585	0.645494	0.578426	0.131216	0.356007	0.241362	0.354148	0.079454	0.307465	0.238	0.187355	0.653673	0.575172
3.649	0.248825	0.097774	0.399365	0.253541	0.65057	0.578492	0.131002	0.357968	0.244064	0.357122	0.078295	0.309896	0.239133	0.186029	0.658476	0.577572
3.6495	0.248747	0.097242	0.400537	0.253558	0.655638	0.578598	0.130791	0.359943	0.246775	0.360047	0.077152	0.312352	0.240256	0.184717	0.663281	0.579945
3.65	0.248691	0.096703	0.401702	0.253634	0.660697	0.578746	0.130585	0.361933	0.249493	0.362923	0.076023	0.314831	0.241366	0.183419	0.668086	0.582289
3.6505	0.248657	0.096157	0.40286	0.25377	0.665746	0.578939	0.130383	0.363935	0.252218	0.365748	0.074909	0.317334	0.242465	0.182135	0.672889	0.584603
3.651	0.248645	0.095603	0.404012	0.253964	0.670784	0.579178	0.130185	0.365948	0.254949	0.36852	0.07381	0.31986	0.24355	0.180866	0.677689	0.586888
3.6515	0.248654	0.095043	0.405156	0.254216	0.675811	0.579466	0.12999	0.367971	0.257685	0.371238	0.072727	0.322409	0.244621	0.179612	0.682482	0.589142
3.652	0.248684	0.094476	0.406293	0.254527	0.680825	0.579804	0.129799	0.370004	0.260425	0.373902	0.071659	0.324982	0.245679	0.178373	0.687268	0.591365
3.6525	0.248735	0.093903	0.407422	0.254895	0.685825	0.580193	0.129612	0.372044	0.263168	0.376508	0.070606	0.327578	0.246723	0.17715	0.692045	0.593556
3.653	0.248806	0.093324	0.408544	0.255319	0.690812	0.580637	0.129429	0.374091	0.265914	0.379058	0.06957	0.330198	0.247752	0.175943	0.696811	0.595716
3.6535	0.248897	0.09274	0.409657	0.255801	0.695782	0.581135	0.129249	0.376143	0.268661	0.381549	0.068548	0.33284	0.248767	0.174752	0.701566	0.597844
3.654	0.249008	0.092151	0.410761	0.256338	0.700736	0.581689	0.129072	0.3782	0.271408	0.38398	0.067543	0.335506	0.249767	0.173578	0.706307	0.599939
3.6545	0.249137	0.091558	0.411856	0.256931	0.705672	0.5823	0.128898	0.38026	0.274154	0.386351	0.066553	0.338195	0.250752	0.172421	0.711034	0.602003
3.655	0.249285	0.090961	0.412941	0.257578	0.71059	0.58297	0.128728	0.382321	0.276898	0.38866	0.065578	0.340907	0.251721	0.171281	0.715745	0.604035
3.6555	0.24945	0.090361	0.414014	0.258279	0.715487	0.5837	0.128559	0.384382	0.279639	0.390906	0.06462	0.343641	0.252675	0.170158	0.720441	0.606034
3.656	0.249632	0.089759	0.415076	0.259034	0.720364	0.584489	0.128394	0.386443	0.282375	0.393087	0.063677	0.346397	0.253613	0.169053	0.725118	0.608002
3.6565	0.24983	0.089154	0.416125	0.259841	0.725219	0.58534	0.12823	0.388502	0.285106	0.395202	0.06275	0.349175	0.254535	0.167966	0.729777	0.609937
3.657	0.250045	0.088548	0.417161	0.260699	0.730052	0.586253	0.128069	0.390557	0.287829	0.39725	0.061839	0.351974	0.25544	0.166897	0.734415	0.611839
3.6575	0.250274	0.087941	0.418183	0.261609	0.734862	0.587229	0.127909	0.392609	0.290544	0.399228	0.060944	0.354793	0.256328	0.165846	0.739031	0.613709
3.658	0.250519	0.087333	0.419191	0.262567	0.739647	0.588267	0.127751	0.394656	0.293249	0.401136	0.060064	0.357633	0.257199	0.164813	0.743624	0.615546
3.6585	0.250777	0.086725	0.420184	0.263575	0.744407	0.589368	0.127595	0.396698	0.295942	0.402972	0.0592	0.360492	0.258052	0.163798	0.748191	0.617349
3.659	0.251049	0.086117	0.421162	0.26463	0.74914	0.590533	0.127441	0.398735	0.298623	0.404735	0.058351	0.36337	0.258887	0.162803	0.752733	0.619118
3.6595	0.251334	0.085509	0.422124	0.265732	0.753846	0.591762	0.127288	0.400765	0.30129	0.406424	0.057518	0.366265	0.259703	0.161827	0.757247	0.620852
3.66	0.251631	0.084903	0.42307	0.266879	0.758522	0.593056	0.127136	0.402789	0.303941	0.408036	0.056701	0.369178	0.260502	0.16087	0.761733	0.62255
3.6605	0.251939	0.084298	0.424001	0.268071	0.763166	0.594414	0.126985	0.404806	0.306576	0.409572	0.0559	0.372108	0.261282	0.159932	0.76619	0.624212
3.661	0.252258	0.083695	0.424915	0.269306	0.767778	0.595837	0.126834	0.406815	0.309193	0.411031	0.055114	0.375054	0.262044	0.159015	0.770616	0.625837
3.6615	0.252587	0.083094	0.425813	0.270583	0.772354	0.597324	0.126685	0.408818	0.311792	0.412411	0.054343	0.378016	0.262787	0.158117	0.775011	0.627425
3.662	0.252924	0.082495	0.426696	0.2719	0.776893	0.598875	0.126535	0.410813	0.314372	0.413713	0.053588	0.380993	0.263513	0.157239	0.779374	0.628976
3.6625	0.25327	0.081899	0.427563	0.273257	0.781393	0.60049	0.126385	0.4128	0.316932	0.414936	0.052849	0.383985	0.264221	0.156382	0.783703	0.630489
3.663	0.253622	0.081307	0.428415	0.274652	0.78585	0.602168	0.126235	0.414781	0.319471	0.41608	0.052124	0.386991	0.264911	0.155546	0.787997	0.631964
3.6635	0.25398	0.080717	0.429252	0.276083	0.790262	0.603908	0.126084	0.416756	0.321987	0.417146	0.051415	0.390011	0.265582	0.154729	0.792255	0.633402
3.664	0.254344	0.080132	0.430074	0.27755	0.794626	0.60571	0.125932	0.418725	0.324481	0.418132	0.05072	0.393045	0.266236	0.153934	0.796476	0.634802
3.6645	0.25471	0.07955	0.430883	0.279051	0.798939	0.607573	0.125778	0.420689	0.32695	0.419041	0.050041	0.396092	0.266873	0.153159	0.800658	0.636165
3.665	0.25508	0.078973	0.431679	0.280584	0.803197	0.609495	0.125622	0.422648	0.329395	0.419871	0.049376	0.399153	0.267492	0.152406	0.804799	0.637491
3.6655	0.255451	0.078401	0.432464	0.282149	0.807397	0.611477	0.125463	0.424603	0.331813	0.420623	0.048726	0.402226	0.268094	0.151673	0.808897	0.638781
3.666	0.255822	0.077834	0.433237	0.283744	0.811535	0.613517	0.125302	0.426555	0.334203	0.421297	0.048089	0.405311	0.268679	0.150962	0.812952	0.640035
3.6665	0.256193	0.077272	0.433999	0.285369	0.815607	0.615614	0.125136	0.428504	0.336565	0.421893	0.047468	0.408409	0.269248	0.150271	0.81696	0.641254
3.667	0.256561	0.076716	0.434751	0.287021	0.819608	0.617768	0.124967	0.430451	0.338897	0.422411	0.04686	0.411517	0.2698	0.149601	0.82092	0.642438
3.6675	0.256926	0.076165	0.435494	0.2887	0.823535	0.619978	0.124792	0.432396	0.341198	0.422853	0.046265	0.414635	0.270337	0.148952	0.82483	0.643588
3.668	0.257286	0.075621	0.436229	0.290404	0.827381	0.622242	0.124613	0.434339	0.343466	0.423217	0.045684	0.417763	0.270857	0.148324	0.828688	0.644705
3.6685	0.25764	0.075084	0.436955	0.292134	0.831143	0.624559	0.124427	0.436282	0.345702	0.423506	0.045117	0.4209	0.271363	0.147716	0.83249	0.64579
3.669	0.257986	0.074553	0.437674	0.293887	0.834815	0.626929	0.124235	0.438224	0.347903	0.423721	0.044562	0.424044	0.271853	0.147129	0.836235	0.646842
3.6695	0.258324	0.07403	0.438386	0.295664	0.838392	0.629349	0.124037	0.440165	0.35007	0.423863	0.04402	0.427196	0.272328	0.146562	0.83992	0.647861
3.67	0.258653	0.073514	0.439091	0.297464	0.841868	0.631817	0.123831	0.442106	0.352202	0.423934	0.043491	0.430355	0.272789	0.146015	0.843542	0.64885
3.6705	0.25897	0.073005	0.439791	0.299286	0.845238	0.634333	0.123617	0.444047	0.354297	0.423938	0.042974	0.433519	0.273234	0.145489	0.847097	0.649806
3.671	0.259276	0.072504	0.440486	0.30113	0.848497	0.636893	0.123395	0.445989	0.356357	0.423876	0.042469	0.436689	0.273665	0.144982	0.850584	0.650731
3.6715	0.259568	0.072012	0.441178	0.302995	0.851639	0.639496	0.123164	0.447933	0.358379	0.423751	0.041977	0.439863	0.274081	0.144494	0.853997	0.651624
3.672	0.259847	0.071527	0.441866	0.304881	0.85466	0.64214	0.122925	0.449878	0.360362	0.423566	0.041495	0.443041	0.274483	0.144026	0.857335	0.652488
3.6725	0.260111	0.071051	0.442552	0.306787	0.857556	0.644821	0.122676	0.451825	0.362307	0.423322	0.041026	0.446222	0.274871	0.143577	0.860596	0.653322
3.673	0.260359	0.070584	0.443238	0.308713	0.860322	0.647539	0.122418	0.453777	0.364211	0.423023	0.040568	0.449407	0.275245	0.143146	0.863776	0.654129
3.6735	0.26059	0.070126	0.443925	0.310657	0.862956	0.65029	0.12215	0.455732	0.366074	0.42267	0.04012	0.452595	0.275605	0.142734	0.866874	0.654911
3.674	0.260804	0.069677	0.444615	0.31262	0.865455	0.653074	0.121872	0.457693	0.367896	0.422267	0.039684	0.455786	0.275952	0.142339	0.869888	0.655669
3.6745	0.261	0.069238	0.445309	0.3146	0.867817	0.655886	0.121583	0.459659	0.369674	0.421815	0.039259	0.458979	0.276286	0.141963	0.872818	0.656407
3.675	0.261177	0.068808	0.446008	0.316597	0.87004	0.658726	0.121282	0.461632	0.371407	0.421316	0.038844	0.462175	0.276607	0.141604	0.875663	0.657126
3.6755	0.261333	0.068388	0.446714	0.31861	0.872124	0.661591	0.120971	0.463612	0.373095	0.420775	0.03844	0.465373	0.276916	0.141262	0.878423	0.65783
3.676	0.261469	0.067978	0.447428	0.320639	0.874066	0.664477	0.120647	0.4656	0.374735	0.420192	0.038046	0.468574	0.277214	0.140936	0.881098	0.658522
3.6765	0.261582	0.067579	0.448151	0.322683	0.875866	0.667384	0.120312	0.467596	0.376327	0.419571	0.037662	0.471777	0.2775	0.140627	0.883688	0.659203
3.677	0.261672	0.067191	0.448886	0.32474	0.877521	0.670307	0.119964	0.469602	0.377869	0.418914	0.037288	0.474981	0.277776	0.140335	0.886195	0.659876
3.6775	0.261737	0.066813	0.449633	0.326811	0.879031	0.673246	0.119604	0.471618	0.37936	0.418224	0.036923	0.478188	0.278042	0.140058	0.888617	0.660544
3.678	0.261778	0.066447	0.450393	0.328895	0.880393	0.676197	0.119232	0.473644	0.380797	0.417505	0.036568	0.481397	0.278298	0.139796	0.890956	0.661209
3.6785	0.261793	0.066092	0.451168	0.330991	0.881608	0.67916	0.118848	0.47568	0.382181	0.416758	0.036222	0.484607	0.278545	0.13955	0.893212	0.661872
3.679	0.261781	0.065749	0.451959	0.333099	0.882674	0.682134	0.118451	0.477728	0.383509	0.415988	0.035885	0.487819	0.278782	0.139318	0.895384	0.662536
3.6795	0.261741	0.065417	0.452768	0.335217	0.883591	0.685117	0.118043	0.479787	0.384781	0.415195	0.035557	0.491031	0.279012	0.139102	0.897474	0.663202
3.68	0.261674	0.065098	0.453596	0.337347	0.88436	0.688109	0.117623	0.481858	0.385995	0.414384	0.035238	0.494244	0.279233	0.138899	0.899481	0.663873
3.6805	0.261579	0.06479	0.454445	0.339487	0.884983	0.691108	0.117191	0.483942	0.38715	0.413556	0.034928	0.497457	0.279447	0.138711	0.901409	0.66455
3.681	0.261456	0.064495	0.455314	0.341637	0.885461	0.694113	0.116749	0.486039	0.388246	0.412715	0.034626	0.500671	0.279654	0.138535	0.903256	0.665235
3.6815	0.261304	0.064213	0.456207	0.343797	0.885796	0.697124	0.116295	0.48815	0.389282	0.411863	0.034332	0.503883	0.279855	0.138374	0.905027	0.66593
3.682	0.261125	0.063942	0.457122	0.345968	0.885991	0.70014	0.11583	0.490277	0.390255	0.411001	0.034047	0.507094	0.280051	0.138225	0.906723	0.666637
3.6825	0.260918	0.063685	0.458062	0.348149	0.886049	0.703159	0.115354	0.492419	0.391166	0.410134	0.03377	0.510304	0.280244	0.138089	0.908346	0.667358
3.683	0.260683	0.06344	0.459027	0.350341	0.885975	0.706181	0.114868	0.494578	0.392013	0.409262	0.033501	0.51351	0.280433	0.137966	0.909899	0.668093
3.6835	0.26042	0.063208	0.460019	0.352543	0.885771	0.709207	0.114372	0.496753	0.392796	0.408389	0.033241	0.516713	0.280622	0.137855	0.911385	0.668845
3.684	0.260132	0.06299	0.461037	0.354756	0.885441	0.712234	0.113865	0.498945	0.393515	0.407517	0.032988	0.519911	0.28081	0.137758	0.912806	0.669614
3.6845	0.259816	0.062784	0.462084	0.356979	0.88499	0.715263	0.113347	0.501156	0.394169	0.406648	0.032744	0.523103	0.281	0.137672	0.914165	0.670403
3.685	0.259476	0.062591	0.463159	0.359214	0.884422	0.718293	0.11282	0.503384	0.394758	0.405785	0.032508	0.526287	0.281193	0.1376	0.915465	0.671211
3.6855	0.259109	0.062412	0.464263	0.361458	0.883741	0.721325	0.112283	0.50563	0.395282	0.404929	0.03228	0.529462	0.281389	0.137539	0.916706	0.672041
3.686	0.258718	0.062245	0.465397	0.363713	0.88295	0.724358	0.111736	0.507894	0.395743	0.404083	0.032059	0.532628	0.28159	0.137491	0.917892	0.672892
3.6865	0.258302	0.062093	0.466562	0.365978	0.882052	0.727391	0.111181	0.510177	0.396141	0.403249	0.031847	0.535781	0.281797	0.137455	0.919023	0.673766
3.687	0.257862	0.061953	0.467758	0.368253	0.881052	0.730426	0.110616	0.512478	0.396476	0.40243	0.031642	0.538921	0.282011	0.137431	0.920102	0.674663
3.6875	0.257398	0.061828	0.468986	0.370538	0.879953	0.733461	0.110043	0.514799	0.396748	0.401626	0.031444	0.542046	0.282234	0.137418	0.921131	0.675583
3.688	0.25691	0.061715	0.470245	0.372833	0.878758	0.736496	0.109461	0.517138	0.396959	0.400841	0.031254	0.545154	0.282467	0.137418	0.92211	0.676527
3.6885	0.256398	0.061617	0.471536	0.375137	0.877471	0.739531	0.108872	0.519497	0.397108	0.400076	0.031071	0.548243	0.28271	0.137428	0.923042	0.677495
3.689	0.255863	0.061532	0.472858	0.37745	0.876095	0.742565	0.108276	0.521875	0.397196	0.399334	0.030896	0.551312	0.282966	0.13745	0.923928	0.678487
3.6895	0.255304	0.061461	0.474213	0.379772	0.874633	0.745597	0.107673	0.524272	0.397225	0.398617	0.030728	0.554358	0.283235	0.137483	0.924769	0.679503
3.69	0.254722	0.061404	0.4756	0.382102	0.873088	0.748625	0.107063	0.526689	0.397195	0.397926	0.030566	0.55738	0.283519	0.137526	0.925567	0.680543
3.6905	0.254117	0.061361	0.477017	0.38444	0.871465	0.751648	0.106448	0.529124	0.397106	0.397264	0.030412	0.560377	0.283817	0.13758	0.926322	0.681607
3.691	0.25349	0.061331	0.478466	0.386785	0.869766	0.754666	0.105827	0.531578	0.396961	0.396632	0.030264	0.563346	0.284132	0.137645	0.927035	0.682694
3.6915	0.252841	0.061316	0.479946	0.389136	0.867995	0.757675	0.105201	0.534051	0.396761	0.396031	0.030123	0.566287	0.284464	0.13772	0.927707	0.683804
3.692	0.25217	0.061314	0.481455	0.391493	0.866156	0.760675	0.104571	0.536541	0.396508	0.395464	0.029989	0.569196	0.284814	0.137805	0.928338	0.684937
3.6925	0.251478	0.061326	0.482993	0.393854	0.864251	0.763663	0.103937	0.539048	0.396202	0.394932	0.029861	0.572073	0.285183	0.137901	0.928928	0.686092
3.693	0.250765	0.061352	0.484559	0.396217	0.862286	0.766639	0.103298	0.541572	0.395847	0.394436	0.029739	0.574914	0.285571	0.138006	0.929478	0.68727
3.6935	0.250034	0.061392	0.486152	0.398583	0.860263	0.769599	0.102656	0.544111	0.395443	0.393978	0.029624	0.577718	0.28598	0.138121	0.929988	0.688469
3.694	0.249283	0.061446	0.48777	0.400949	0.858187	0.772542	0.102012	0.546666	0.394993	0.39356	0.029515	0.580484	0.28641	0.138245	0.930458	0.689689
3.6945	0.248514	0.061513	0.489413	0.403315	0.856061	0.775466	0.101364	0.549235	0.394498	0.393183	0.029412	0.583207	0.286863	0.138378	0.930889	0.690929
3.695	0.247729	0.061593	0.491078	0.405679	0.853888	0.778369	0.100714	0.551818	0.393959	0.392848	0.029315	0.585887	0.287339	0.138521	0.93128	0.692188
3.6955	0.246927	0.061687	0.492765	0.408038	0.851674	0.781248	0.100062	0.554414	0.39338	0.392556	0.029224	0.58852	0.287839	0.138672	0.931633	0.693466
3.696	0.24611	0.061794	0.494471	0.410393	0.84942	0.784101	0.099408	0.557022	0.39276	0.392309	0.029138	0.591105	0.288363	0.138831	0.931946	0.69476
3.6965	0.245279	0.061914	0.496195	0.412741	0.84713	0.786927	0.098754	0.55964	0.392102	0.392108	0.029059	0.593637	0.288911	0.138999	0.932219	0.69607
3.697	0.244434	0.062047	0.497935	0.415081	0.844807	0.789724	0.098098	0.562268	0.391408	0.391954	0.028985	0.596116	0.289485	0.139174	0.932452	0.697393
3.6975	0.243577	0.062193	0.499689	0.417411	0.842453	0.792489	0.097442	0.564905	0.390681	0.391848	0.028916	0.598538	0.290085	0.139357	0.932645	0.69873
3.698	0.242708	0.062351	0.501456	0.419729	0.840072	0.795221	0.096787	0.567549	0.389921	0.391792	0.028853	0.6009	0.290711	0.139547	0.932795	0.700078
3.6985	0.241828	0.062521	0.503234	0.422034	0.837665	0.797917	0.096132	0.570199	0.389131	0.391786	0.028794	0.603202	0.291363	0.139743	0.932903	0.701435
3.699	0.240938	0.062704	0.505021	0.424324	0.835235	0.800578	0.095477	0.572854	0.388314	0.391833	0.028741	0.60544	0.292041	0.139947	0.932966	0.702801
3.6995	0.240038	0.062898	0.506815	0.426598	0.832782	0.803199	0.094824	0.575512	0.387471	0.391932	0.028693	0.607614	0.292746	0.140156	0.932983	0.704173
3.7	0.239128	0.063104	0.508616	0.428855	0.830309	0.805781	0.094173	0.578173	0.386605	0.392087	0.028649	0.609723	0.293477	0.140372	0.932952	0.705551
3.7005	0.238211	0.063322	0.510421	0.431092	0.827817	0.80832	0.093523	0.580836	0.385716	0.392296	0.02861	0.611766	0.294235	0.140594	0.932873	0.706933
3.701	0.237285	0.06355	0.51223	0.43331	0.825308	0.810815	0.092876	0.583499	0.384808	0.392563	0.028576	0.613743	0.29502	0.140822	0.932744	0.708318
3.7015	0.236352	0.06379	0.514042	0.435507	0.822781	0.813263	0.092231	0.586162	0.383881	0.392886	0.028546	0.615655	0.295832	0.141056	0.932565	0.709704
3.702	0.235411	0.064041	0.515855	0.437682	0.820239	0.815662	0.091589	0.588825	0.382936	0.393268	0.02852	0.617502	0.29667	0.141295	0.932334	0.711092
3.7025	0.234465	0.064303	0.517669	0.439834	0.817681	0.818009	0.090951	0.591487	0.381977	0.393708	0.028499	0.619283	0.297536	0.141541	0.932052	0.712479
3.703	0.233512	0.064575	0.519482	0.441963	0.815109	0.820301	0.090315	0.594146	0.381003	0.394207	0.028481	0.620999	0.298428	0.141793	0.931718	0.713865
3.7035	0.232553	0.064858	0.521295	0.444067	0.812523	0.822536	0.089684	0.596803	0.380017	0.394765	0.028467	0.622651	0.299346	0.14205	0.931334	0.715249
3.704	0.231589	0.065151	0.523107	0.446147	0.809924	0.82471	0.089056	0.599457	0.379019	0.395384	0.028458	0.62424	0.300292	0.142313	0.930899	0.716631
3.7045	0.230619	0.065454	0.524918	0.4482	0.807313	0.82682	0.088432	0.602107	0.378012	0.396062	0.028452	0.625768	0.301263	0.142582	0.930414	0.718009
3.705	0.229645	0.065766	0.526728	0.450228	0.80469	0.828862	0.087813	0.604754	0.376995	0.396801	0.02845	0.627236	0.30226	0.142858	0.929881	0.719383
3.7055	0.228666	0.066089	0.528537	0.452228	0.802056	0.830835	0.087197	0.607397	0.375972	0.397601	0.028451	0.628647	0.303283	0.14314	0.9293	0.720752
3.706	0.227683	0.06642	0.530345	0.4542	0.799412	0.832734	0.086587	0.610037	0.374942	0.398462	0.028456	0.630003	0.304331	0.143428	0.928671	0.722114
3.7065	0.226696	0.066761	0.532151	0.456144	0.796758	0.834556	0.085981	0.612674	0.373907	0.399384	0.028464	0.631306	0.305403	0.143724	0.927996	0.723469
3.707	0.225706	0.067111	0.533957	0.458058	0.794095	0.836298	0.08538	0.615309	0.372868	0.400366	0.028475	0.632558	0.306499	0.144026	0.927274	0.724816
3.7075	0.224713	0.06747	0.535762	0.459943	0.791423	0.837957	0.084784	0.617941	0.371826	0.40141	0.02849	0.633763	0.307618	0.144336	0.926504	0.726153
3.708	0.223718	0.067837	0.537566	0.461797	0.788743	0.839528	0.084192	0.620571	0.370782	0.402516	0.028508	0.634923	0.30876	0.144653	0.925688	0.72748
3.7085	0.222722	0.068212	0.539368	0.463621	0.786054	0.84101	0.083606	0.623198	0.369737	0.403681	0.028528	0.63604	0.309924	0.144977	0.924824	0.728798
3.709	0.221724	0.068596	0.54117	0.465412	0.783358	0.842399	0.083025	0.625822	0.368691	0.404908	0.028552	0.637117	0.31111	0.145309	0.923913	0.730104
3.7095	0.220725	0.068987	0.542971	0.467172	0.780656	0.843693	0.082449	0.628443	0.367646	0.406195	0.028578	0.638156	0.312318	0.145649	0.922954	0.7314
3.71	0.219726	0.069386	0.544769	0.468899	0.777948	0.84489	0.081878	0.63106	0.366602	0.407541	0.028607	0.639159	0.313547	0.145996	0.921947	0.732686
3.7105	0.218727	0.069792	0.546566	0.470593	0.775236	0.845989	0.081312	0.633672	0.365559	0.408946	0.028638	0.64013	0.314797	0.14635	0.920894	0.733961
3.711	0.217729	0.070206	0.54836	0.472254	0.772521	0.846987	0.080752	0.63628	0.364519	0.41041	0.028672	0.641071	0.316068	0.146713	0.919794	0.735227
3.7115	0.216732	0.070627	0.55015	0.473882	0.769805	0.847884	0.080197	0.638881	0.36348	0.411931	0.028709	0.641984	0.317359	0.147083	0.918649	0.736482
3.712	0.215737	0.071054	0.551936	0.475478	0.767091	0.848678	0.079647	0.641476	0.362445	0.41351	0.028748	0.642873	0.31867	0.147461	0.91746	0.737727
3.7125	0.214744	0.071489	0.553716	0.477042	0.764379	0.849369	0.079102	0.644064	0.361412	0.415144	0.028789	0.64374	0.320001	0.147847	0.916228	0.738962
3.713	0.213754	0.07193	0.55549	0.478576	0.761673	0.849955	0.078563	0.646645	0.360382	0.416832	0.028833	0.644587	0.321351	0.148241	0.914954	0.740187
3.7135	0.212767	0.072377	0.557258	0.48008	0.758974	0.850435	0.078029	0.649216	0.359356	0.418575	0.028879	0.645416	0.32272	0.148642	0.91364	0.741401
3.714	0.211784	0.072831	0.559018	0.481555	0.756285	0.850808	0.077501	0.651779	0.358332	0.420369	0.028927	0.646229	0.324106	0.149052	0.912286	0.742605
3.7145	0.210804	0.073291	0.56077	0.483	0.753607	0.851073	0.076978	0.65433	0.357312	0.422215	0.028978	0.647029	0.32551	0.149469	0.910895	0.743798
3.715	0.209828	0.073758	0.562514	0.484417	0.750942	0.85123	0.076461	0.656871	0.356294	0.42411	0.029031	0.647816	0.326929	0.149895	0.909467	0.74498
3.7155	0.208856	0.07423	0.564249	0.485806	0.748292	0.851279	0.07595	0.659399	0.355279	0.426054	0.029086	0.648593	0.328364	0.150328	0.908002	0.746152
3.716	0.207889	0.074708	0.565975	0.487167	0.745658	0.85122	0.075443	0.661913	0.354267	0.428044	0.029143	0.649361	0.329814	0.15077	0.906502	0.747313
3.7165	0.206926	0.075193	0.567691	0.488502	0.743041	0.851055	0.074942	0.664413	0.353258	0.43008	0.029202	0.650122	0.331278	0.15122	0.904966	0.748463
3.717	0.205967	0.075683	0.569397	0.48981	0.740442	0.850784	0.074447	0.666898	0.352252	0.43216	0.029263	0.650876	0.332754	0.151679	0.903394	0.749601
3.7175	0.205013	0.07618	0.571093	0.491093	0.737862	0.850408	0.073956	0.669366	0.351248	0.434283	0.029326	0.651626	0.334243	0.152145	0.901787	0.750727
3.718	0.204063	0.076682	0.572777	0.492352	0.735303	0.849928	0.073471	0.671816	0.350248	0.436448	0.029391	0.652371	0.335742	0.152619	0.900143	0.751841
3.7185	0.203117	0.077191	0.57445	0.493587	0.732764	0.849345	0.072991	0.674249	0.349251	0.438653	0.029458	0.653114	0.337252	0.153102	0.898463	0.752942
3.719	0.202176	0.077706	0.576112	0.4948	0.730246	0.848659	0.072516	0.676662	0.348257	0.440897	0.029526	0.653855	0.33877	0.153593	0.896746	0.75403
3.7195	0.201239	0.078228	0.577762	0.49599	0.727751	0.847871	0.072045	0.679056	0.347268	0.443179	0.029596	0.654595	0.340297	0.154091	0.894989	0.755106
3.72	0.200306	0.078756	0.579401	0.497158	0.725277	0.846981	0.071579	0.681429	0.346284	0.445497	0.029668	0.655335	0.34183	0.154597	0.893194	0.756167
3.7205	0.199377	0.079291	0.58103	0.498306	0.722825	0.84599	0.071118	0.683781	0.345305	0.44785	0.029741	0.656075	0.34337	0.155111	0.891357	0.757214
3.721	0.198452	0.079833	0.582647	0.499435	0.720396	0.844897	0.070661	0.686111	0.344332	0.450237	0.029815	0.656817	0.344915	0.155632	0.889478	0.758245
3.7215	0.19753	0.080381	0.584255	0.500544	0.717989	0.843704	0.070208	0.688417	0.343366	0.452655	0.02989	0.657561	0.346464	0.15616	0.887554	0.759259
3.722	0.196612	0.080935	0.585852	0.501636	0.715605	0.842411	0.069759	0.690699	0.342407	0.455103	0.029967	0.658309	0.348018	0.156696	0.885584	0.760255
3.7225	0.195697	0.081497	0.587439	0.502711	0.713243	0.841019	0.069314	0.692955	0.341456	0.45758	0.030045	0.65906	0.349576	0.157238	0.883566	0.761231
3.723	0.194786	0.082065	0.589016	0.503771	0.710903	0.839529	0.068873	0.695185	0.340514	0.460084	0.030123	0.659817	0.351137	0.157787	0.881497	0.762187
3.7235	0.193877	0.082639	0.590584	0.504815	0.708585	0.837942	0.068435	0.697388	0.33958	0.462613	0.030203	0.660578	0.352701	0.158342	0.879374	0.763119
3.724	0.192971	0.083221	0.592142	0.505845	0.706288	0.836259	0.068001	0.699562	0.338656	0.465165	0.030283	0.661344	0.354267	0.158902	0.877194	0.764027
3.7245	0.192067	0.083809	0.593691	0.506862	0.704012	0.834483	0.06757	0.70171	0.337742	0.467739	0.030363	0.662116	0.355835	0.159469	0.874956	0.764909
3.725	0.191166	0.084404	0.59523	0.507866	0.701758	0.832614	0.067142	0.703829	0.336837	0.470334	0.030444	0.662894	0.357405	0.16004	0.872657	0.765763
3.7255	0.190266	0.085005	0.596759	0.50886	0.699526	0.830653	0.066717	0.70592	0.335942	0.472948	0.030526	0.663676	0.358975	0.160616	0.870293	0.766586
3.726	0.189368	0.085613	0.598278	0.509843	0.697316	0.828602	0.066295	0.707984	0.335058	0.47558	0.030607	0.664463	0.360546	0.161196	0.867865	0.767377
3.7265	0.188471	0.086228	0.599786	0.510817	0.695128	0.826462	0.065875	0.710019	0.334185	0.478228	0.030689	0.665255	0.362116	0.16178	0.865369	0.768132
3.727	0.187575	0.08685	0.601282	0.511783	0.692963	0.824234	0.065457	0.712026	0.333322	0.480892	0.030771	0.666049	0.363686	0.162368	0.862804	0.76885
3.7275	0.186679	0.087478	0.602766	0.51274	0.690821	0.821921	0.065041	0.714005	0.332471	0.483571	0.030852	0.666847	0.365255	0.162958	0.86017	0.769528
3.728	0.185784	0.088113	0.604238	0.513691	0.688703	0.819523	0.064627	0.715954	0.331631	0.486265	0.030933	0.667647	0.366823	0.163551	0.857466	0.770163
3.7285	0.184889	0.088755	0.605696	0.514634	0.686608	0.817042	0.064215	0.717875	0.330803	0.488972	0.031014	0.668447	0.368389	0.164145	0.854692	0.770754
3.729	0.183994	0.089404	0.607139	0.515572	0.684536	0.81448	0.063804	0.719765	0.329987	0.491692	0.031094	0.669248	0.369953	0.164742	0.851848	0.771298
3.7295	0.183099	0.090059	0.608567	0.516503	0.682487	0.811838	0.063394	0.721626	0.329182	0.494424	0.031174	0.670049	0.371515	0.165339	0.848934	0.771792
3.73	0.182202	0.090721	0.609978	0.517429	0.680462	0.809119	0.062986	0.723455	0.328391	0.497168	0.031253	0.670847	0.373075	0.165937	0.84595	0.772235
3.7305	0.181305	0.091389	0.611372	0.518349	0.678458	0.806322	0.062579	0.725254	0.327611	0.499922	0.031331	0.671641	0.374632	0.166534	0.842897	0.772625
3.731	0.180406	0.092064	0.612748	0.519263	0.676475	0.803452	0.062172	0.72702	0.326844	0.502687	0.031409	0.672432	0.376186	0.167131	0.839774	0.772961
3.7315	0.179506	0.092746	0.614103	0.520172	0.674512	0.800508	0.061767	0.728754	0.32609	0.505461	0.031486	0.673216	0.377736	0.167727	0.836583	0.773242
3.732	0.178603	0.093434	0.615437	0.521075	0.672569	0.797494	0.061362	0.730454	0.325349	0.508244	0.031562	0.673993	0.379282	0.168321	0.833322	0.773468
3.7325	0.177698	0.094128	0.616747	0.521971	0.670643	0.79441	0.060957	0.732121	0.324622	0.511035	0.031636	0.674761	0.380823	0.168913	0.829992	0.773637
3.733	0.17679	0.094829	0.618033	0.522862	0.668734	0.791258	0.060553	0.733753	0.323909	0.513835	0.03171	0.675519	0.382359	0.169502	0.826594	0.77375
3.7335	0.175879	0.095535	0.619291	0.523745	0.66684	0.788041	0.060149	0.735349	0.32321	0.516641	0.031783	0.676266	0.383889	0.170088	0.823128	0.773806
3.734	0.174964	0.096248	0.620522	0.524621	0.66496	0.784758	0.059747	0.736909	0.322525	0.519455	0.031855	0.677	0.385412	0.170671	0.819596	0.773804
3.7345	0.174046	0.096967	0.621723	0.525488	0.663094	0.781413	0.059344	0.73843	0.321854	0.522274	0.031926	0.677721	0.386929	0.171251	0.815999	0.773743
3.735	0.173124	0.097691	0.622895	0.526347	0.66124	0.778006	0.058943	0.739913	0.321199	0.525099	0.031995	0.678428	0.388439	0.171826	0.81234	0.773622
3.7355	0.172197	0.098421	0.624035	0.527195	0.659397	0.774537	0.058541	0.741355	0.320559	0.527928	0.032063	0.67912	0.389942	0.172398	0.80862	0.77344
3.736	0.171267	0.099157	0.625144	0.528033	0.657566	0.77101	0.058141	0.742757	0.319935	0.53076	0.03213	0.679797	0.391437	0.172966	0.804842	0.773197
3.7365	0.170332	0.099898	0.626219	0.528859	0.655747	0.767423	0.057741	0.744117	0.319327	0.533595	0.032196	0.680457	0.392925	0.173529	0.801009	0.772892
3.737	0.169394	0.100644	0.627261	0.529672	0.653938	0.763779	0.057343	0.745433	0.318735	0.53643	0.032261	0.6811	0.394403	0.174088	0.797123	0.772524
3.7375	0.16845	0.101395	0.628268	0.530473	0.652141	0.760077	0.056945	0.746705	0.318159	0.539266	0.032324	0.681725	0.395873	0.174642	0.793186	0.772092
3.738	0.167503	0.102151	0.629238	0.531259	0.650356	0.75632	0.056548	0.747932	0.3176	0.5421	0.032386	0.682329	0.397333	0.175193	0.789201	0.771597
3.7385	0.166551	0.102912	0.630172	0.53203	0.648583	0.752508	0.056151	0.749113	0.317057	0.544933	0.032447	0.682913	0.398783	0.175738	0.78517	0.771039
3.739	0.165595	0.103676	0.631067	0.532785	0.646823	0.748641	0.055756	0.750247	0.316531	0.547764	0.032506	0.683474	0.400223	0.176279	0.781094	0.770417
3.7395	0.164636	0.104445	0.631923	0.533525	0.645075	0.744721	0.055362	0.751332	0.316021	0.550591	0.032565	0.684012	0.401652	0.176815	0.776975	0.769731
3.74	0.163672	0.105217	0.632738	0.534248	0.64334	0.740747	0.054969	0.752367	0.315527	0.553413	0.032622	0.684523	0.403071	0.177347	0.772816	0.768983
3.7405	0.162706	0.105993	0.633512	0.534955	0.641617	0.736721	0.054578	0.75335	0.31505	0.55623	0.032678	0.685007	0.404479	0.177873	0.768617	0.768172
3.741	0.161736	0.106772	0.634242	0.535644	0.639906	0.732643	0.054187	0.754279	0.314588	0.55904	0.032733	0.685463	0.405875	0.178396	0.76438	0.767299
3.7415	0.160763	0.107554	0.634928	0.536317	0.638207	0.728516	0.053798	0.755152	0.314141	0.561841	0.032787	0.685889	0.407261	0.178914	0.760105	0.766365
3.742	0.159787	0.108339	0.635568	0.536973	0.636519	0.72434	0.053409	0.755969	0.31371	0.564634	0.03284	0.686284	0.408635	0.179427	0.755794	0.765372
3.7425	0.158809	0.109127	0.636159	0.537611	0.634841	0.720117	0.053022	0.756726	0.313294	0.567415	0.032892	0.686647	0.409999	0.179937	0.751448	0.76432
3.743	0.157828	0.109916	0.636701	0.538231	0.633173	0.715849	0.052637	0.757424	0.312893	0.570186	0.032943	0.686978	0.41135	0.180442	0.747067	0.76321
3.7435	0.156845	0.110708	0.637193	0.538833	0.631512	0.71154	0.052253	0.758063	0.312506	0.572944	0.032993	0.687274	0.412691	0.180943	0.742651	0.762044
3.744	0.15586	0.111501	0.637633	0.539416	0.629859	0.707191	0.05187	0.75864	0.312133	0.575688	0.033043	0.687536	0.414018	0.18144	0.738201	0.760822
3.7445	0.154873	0.112295	0.638019	0.53998	0.628212	0.702806	0.051489	0.759157	0.311774	0.578419	0.033091	0.68776	0.415334	0.181933	0.733717	0.759545
3.745	0.153884	0.11309	0.638352	0.540525	0.626571	0.698387	0.051109	0.759612	0.311428	0.581135	0.033139	0.687946	0.416636	0.182422	0.7292	0.758215
3.7455	0.152894	0.113886	0.63863	0.541049	0.624935	0.693936	0.050731	0.760005	0.311094	0.583835	0.033185	0.688093	0.417924	0.182906	0.724649	0.756832
3.746	0.151902	0.114681	0.638853	0.541553	0.623303	0.689457	0.050355	0.760335	0.310773	0.586519	0.033231	0.688198	0.419197	0.183386	0.720064	0.755395
3.7465	0.15091	0.115477	0.639018	0.542037	0.621675	0.684952	0.04998	0.760602	0.310463	0.589186	0.033276	0.688261	0.420455	0.183861	0.715446	0.753906
3.747	0.149917	0.116271	0.639125	0.5425	0.620048	0.680425	0.049607	0.760806	0.310164	0.591835	0.033321	0.68828	0.421695	0.184331	0.710794	0.752365
3.7475	0.148923	0.117064	0.639172	0.542941	0.618424	0.675878	0.049236	0.760946	0.309875	0.594465	0.033364	0.688254	0.422918	0.184797	0.706108	0.750772
3.748	0.147929	0.117856	0.63916	0.54336	0.616799	0.671316	0.048866	0.761022	0.309595	0.597075	0.033406	0.688181	0.424122	0.185257	0.701387	0.749127
3.7485	0.146934	0.118645	0.639089	0.543755	0.615175	0.666741	0.048498	0.761033	0.309324	0.599664	0.033448	0.68806	0.425306	0.185713	0.696631	0.74743
3.749	0.14594	0.119432	0.638958	0.544127	0.613549	0.662156	0.048132	0.760978	0.309061	0.602229	0.033488	0.68789	0.426468	0.186163	0.69184	0.745682
3.7495	0.144947	0.120215	0.638767	0.544475	0.611921	0.657564	0.047768	0.760857	0.308806	0.604771	0.033528	0.68767	0.427609	0.186608	0.687013	0.743883
3.75	0.143953	0.120995	0.638518	0.544799	0.61029	0.652966	0.047405	0.760668	0.308557	0.607287	0.033566	0.687399	0.428728	0.187047	0.68215	0.742033
3.7505	0.142961	0.12177	0.638211	0.545097	0.608655	0.648367	0.047044	0.76041	0.308315	0.609777	0.033604	0.687076	0.429824	0.187481	0.67725	0.740132
3.751	0.14197	0.12254	0.637846	0.54537	0.607014	0.643768	0.046684	0.760082	0.308078	0.612239	0.03364	0.686701	0.430896	0.18791	0.672314	0.738181
3.7515	0.140979	0.123304	0.637426	0.545616	0.605366	0.63917	0.046326	0.759683	0.307845	0.614671	0.033676	0.686274	0.431946	0.188333	0.667342	0.736178
