datacolumns 17
datarows 190
time	addmag_r	bicfemlh_r	gaslat_r	gasmed_r	gmax_r	gmed_r	gra_r	perlong_r	recfem_r	sar_r	semimem_r	sol_r	tfl_r	tibant_r	vaslat_r	vasmed_r
2.192	0.004953	0.00339	0.011084	0.009087	0.005547	0.011	0.008699	0.026508	0.00985	0.014838	0	0.015172	0.007262	0.299456	0.001702	0.001605
2.196	0.004919	0.003444	0.010774	0.008699	0.005733	0.011793	0.008286	0.026306	0.009634	0.015118	0	0.014387	0.006721	0.299596	0.001816	0.001624
2.2	0.004929	0.003495	0.010452	0.008282	0.005956	0.01273	0.00786	0.026018	0.009439	0.015299	0	0.01357	0.006204	0.298239	0.001953	0.001658
2.204	0.004999	0.003545	0.010111	0.007836	0.006215	0.013811	0.007428	0.025603	0.009248	0.015343	0	0.012733	0.005722	0.294831	0.00211	0.001709
2.208	0.005149	0.003597	0.009741	0.007361	0.006506	0.015034	0.006998	0.025028	0.009042	0.01522	0	0.011875	0.005286	0.288921	0.002287	0.001779
2.212	0.005405	0.003656	0.009335	0.006867	0.006823	0.016385	0.006578	0.024278	0.008799	0.014907	0	0.010999	0.004901	0.280367	0.002479	0.00187
2.216	0.005796	0.003731	0.008906	0.006369	0.007155	0.017841	0.006176	0.023357	0.008505	0.014394	0	0.010118	0.004572	0.269397	0.002686	0.001983
2.22	0.006356	0.00383	0.008468	0.005885	0.007488	0.019371	0.005799	0.022305	0.008157	0.013697	0	0.009259	0.004299	0.256516	0.002902	0.002118
2.224	0.007124	0.003967	0.008034	0.005428	0.007806	0.020941	0.005455	0.021167	0.00777	0.012845	0.000171	0.008443	0.004078	0.24215	0.003124	0.002275
2.228	0.00814	0.004157	0.00761	0.005006	0.008098	0.022504	0.005155	0.019982	0.007355	0.01188	0.001484	0.007686	0.003903	0.226609	0.003348	0.002451
2.232	0.00945	0.004417	0.007199	0.004624	0.008355	0.024002	0.004909	0.018788	0.006928	0.010848	0.003234	0.006995	0.003766	0.210132	0.003568	0.002643
2.236	0.011102	0.004766	0.006805	0.004283	0.008573	0.025381	0.004721	0.017621	0.006503	0.009796	0.005481	0.006371	0.003654	0.192924	0.003786	0.002848
2.24	0.01314	0.005221	0.00643	0.003984	0.008753	0.026598	0.004598	0.016502	0.006094	0.008765	0.008285	0.005816	0.003557	0.175202	0.004012	0.003059
2.244	0.015604	0.005799	0.006078	0.003725	0.008899	0.027639	0.004544	0.015445	0.005709	0.007785	0.0117	0.005326	0.003466	0.15734	0.004256	0.00327
2.248	0.018519	0.006513	0.00575	0.003504	0.009018	0.028501	0.004559	0.01446	0.005354	0.00688	0.015772	0.004895	0.003377	0.139837	0.004529	0.003471
2.3	0.08039	0.025184	0.004958	0.003489	0.007627	0.028547	0.009706	0.012441	0.003961	0.002856	0.109974	0.003936	0.003429	0.042922	0.013037	0.004993
2.304	0.084141	0.026428	0.005367	0.003711	0.007285	0.028337	0.010278	0.013374	0.004136	0.002976	0.115494	0.004145	0.003635	0.046669	0.014027	0.005195
2.308	0.087225	0.027428	0.005866	0.003967	0.006942	0.028235	0.010821	0.014446	0.004333	0.003134	0.120079	0.004397	0.003899	0.051759	0.015006	0.005415
2.312	0.089463	0.028121	0.006451	0.004256	0.006623	0.028285	0.011317	0.015632	0.004541	0.003329	0.123702	0.004691	0.004234	0.058106	0.01595	0.005641
2.316	0.090747	0.028465	0.00711	0.004577	0.006356	0.028515	0.011752	0.016898	0.004752	0.003556	0.126388	0.005027	0.00465	0.065594	0.016836	0.005863
2.32	0.091075	0.028474	0.007832	0.004927	0.006165	0.028932	0.012122	0.018197	0.004959	0.00381	0.128271	0.005401	0.005158	0.07405	0.017654	0.006072
2.324	0.090492	0.028217	0.008594	0.005303	0.006067	0.029523	0.012429	0.019476	0.005164	0.004084	0.129522	0.005805	0.005761	0.083228	0.018404	0.006261
2.328	0.089079	0.027789	0.009373	0.005699	0.00608	0.030269	0.012674	0.020671	0.005369	0.004369	0.130224	0.006228	0.00646	0.092818	0.019087	0.006428
2.332	0.086977	0.027283	0.010138	0.006108	0.006215	0.031155	0.01286	0.021712	0.005577	0.004652	0.130362	0.006653	0.007254	0.102473	0.019696	0.006573
2.336	0.084369	0.026811	0.010852	0.006521	0.006485	0.032171	0.012989	0.022537	0.00579	0.00492	0.129866	0.007064	0.008136	0.111826	0.020218	0.006688
2.34	0.081431	0.026476	0.011477	0.006923	0.0069	0.033302	0.013061	0.023096	0.006012	0.005162	0.128709	0.007447	0.009098	0.120511	0.020651	0.006768
2.344	0.078333	0.026385	0.011993	0.007308	0.007473	0.03452	0.013074	0.023364	0.00624	0.005367	0.126907	0.007784	0.010125	0.128258	0.020999	0.006817
2.348	0.075249	0.026634	0.012403	0.007679	0.008216	0.035791	0.013036	0.023366	0.006471	0.00553	0.124601	0.008063	0.011194	0.134873	0.021284	0.006847
2.352	0.072332	0.027308	0.012724	0.008037	0.009137	0.037081	0.01296	0.023175	0.006701	0.005653	0.122026	0.008278	0.012281	0.14027	0.021534	0.006874
2.356	0.069749	0.028502	0.01297	0.00838	0.010239	0.038355	0.012867	0.022878	0.006938	0.005742	0.119456	0.008434	0.013355	0.144456	0.02178	0.00691
2.36	0.067621	0.030308	0.013152	0.008703	0.011516	0.039552	0.012787	0.02254	0.007188	0.00581	0.117157	0.008532	0.01438	0.147501	0.022055	0.006967
2.364	0.066006	0.032809	0.013275	0.008991	0.012959	0.040589	0.012741	0.022201	0.007457	0.005867	0.11533	0.008571	0.015306	0.149552	0.022369	0.007056
2.368	0.064925	0.036072	0.013341	0.009228	0.014563	0.04136	0.012741	0.021889	0.007743	0.00592	0.114093	0.008547	0.016071	0.150715	0.022719	0.007198
2.372	0.064405	0.040155	0.013355	0.009401	0.016327	0.041761	0.012803	0.021641	0.008044	0.005978	0.113509	0.008457	0.016608	0.151073	0.023089	0.007422
2.376	0.064465	0.045116	0.013331	0.009516	0.018249	0.041719	0.012932	0.021501	0.008358	0.006047	0.113593	0.008306	0.016857	0.150906	0.023461	0.007761
2.38	0.06512	0.051009	0.013294	0.009587	0.020327	0.041256	0.013126	0.021505	0.008685	0.006138	0.114388	0.008106	0.016788	0.15076	0.023829	0.008242
2.384	0.066427	0.057864	0.013271	0.009635	0.022547	0.040476	0.013379	0.021676	0.009023	0.006257	0.116006	0.007882	0.016414	0.151218	0.024191	0.008887
2.388	0.068467	0.065683	0.013288	0.009682	0.02489	0.039521	0.013686	0.022016	0.009366	0.006411	0.118578	0.007657	0.015784	0.152794	0.024563	0.009709
2.392	0.071264	0.074437	0.013356	0.00974	0.02735	0.038534	0.014045	0.022518	0.009711	0.006606	0.122167	0.007454	0.014962	0.155897	0.024973	0.010715
2.396	0.074838	0.08406	0.013482	0.009821	0.029943	0.037634	0.014452	0.023182	0.010056	0.00684	0.126826	0.007285	0.014013	0.160846	0.025459	0.011909
2.4	0.079251	0.094443	0.013671	0.009933	0.032705	0.03694	0.014908	0.024018	0.010406	0.007113	0.132597	0.007163	0.012992	0.167877	0.026076	0.013288
2.404	0.08458	0.105441	0.013922	0.010086	0.03567	0.036579	0.015413	0.025033	0.010767	0.00742	0.139499	0.007099	0.011946	0.177186	0.026896	0.014855
2.408	0.09088	0.116863	0.014235	0.010288	0.038853	0.036673	0.015971	0.026234	0.011144	0.007759	0.147494	0.007097	0.010918	0.188867	0.02799	0.016612
2.412	0.098199	0.128485	0.014611	0.010543	0.042262	0.037341	0.01658	0.027621	0.011555	0.008128	0.156433	0.007158	0.009944	0.202843	0.029431	0.018557
2.416	0.10655	0.140101	0.015054	0.010849	0.0459	0.038677	0.017232	0.029201	0.012028	0.008531	0.166101	0.007281	0.009053	0.218866	0.031289	0.020688
2.42	0.115876	0.151543	0.015568	0.011197	0.049758	0.040754	0.017917	0.030967	0.012589	0.008969	0.176216	0.007459	0.008267	0.236558	0.033638	0.023002
2.424	0.126069	0.162627	0.01615	0.011572	0.053842	0.043626	0.018619	0.032899	0.013267	0.009443	0.186419	0.007678	0.007598	0.255519	0.036528	0.025518
2.428	0.136935	0.173192	0.016797	0.011974	0.058153	0.047336	0.019309	0.034966	0.01408	0.009951	0.196213	0.007929	0.007052	0.275391	0.039984	0.028261
2.432	0.148181	0.183198	0.017523	0.01241	0.062669	0.051895	0.019963	0.037133	0.015039	0.010496	0.204966	0.008211	0.006633	0.295968	0.044	0.031251
2.436	0.159419	0.192733	0.018356	0.012887	0.067357	0.057286	0.020572	0.039407	0.016152	0.011072	0.211961	0.008537	0.006339	0.317248	0.048532	0.034491
2.44	0.170119	0.201802	0.019323	0.013421	0.072163	0.063467	0.021136	0.041798	0.017423	0.011676	0.216533	0.008926	0.006168	0.339205	0.053507	0.037987
2.444	0.179633	0.210254	0.020437	0.014021	0.077013	0.070355	0.021669	0.044307	0.018845	0.012297	0.218149	0.009401	0.006111	0.361718	0.058843	0.041744
2.448	0.187285	0.217789	0.021706	0.014692	0.081848	0.077814	0.022186	0.04693	0.020397	0.012918	0.216389	0.009985	0.006163	0.384641	0.064444	0.045757
2.452	0.192523	0.22407	0.023125	0.015431	0.086642	0.08565	0.022697	0.04964	0.022048	0.013525	0.211198	0.010695	0.006317	0.407962	0.070202	0.050007
2.456	0.195059	0.228862	0.02468	0.016238	0.091386	0.093607	0.023209	0.052405	0.023761	0.014096	0.202948	0.011542	0.006567	0.431915	0.07599	0.054459
2.46	0.195008	0.232006	0.026344	0.017107	0.096048	0.1014	0.02374	0.05519	0.025491	0.014614	0.192183	0.012527	0.006911	0.456598	0.081663	0.059045
2.464	0.19261	0.2334	0.028076	0.018024	0.100637	0.108796	0.024311	0.057929	0.027184	0.015065	0.179567	0.013653	0.007342	0.481808	0.087125	0.06369
2.468	0.188151	0.232937	0.029834	0.018965	0.105138	0.115637	0.024931	0.060528	0.028783	0.015436	0.165812	0.014915	0.007852	0.506969	0.09233	0.06832
2.472	0.18199	0.230692	0.03158	0.019901	0.109509	0.121892	0.025608	0.062904	0.030241	0.015723	0.151506	0.016303	0.00843	0.53121	0.097332	0.072859
2.476	0.174435	0.226709	0.033293	0.020808	0.11369	0.127623	0.026345	0.064976	0.031543	0.015935	0.137102	0.017815	0.009062	0.553442	0.102222	0.077231
2.48	0.165799	0.221066	0.034961	0.021674	0.117556	0.13293	0.027128	0.066686	0.03268	0.016084	0.122937	0.019465	0.009728	0.57272	0.107098	0.081355
2.484	0.156486	0.213984	0.03658	0.022498	0.120893	0.137867	0.027931	0.068045	0.033637	0.01618	0.109284	0.021281	0.010404	0.588578	0.111998	0.08511
2.488	0.146882	0.205759	0.038136	0.023277	0.123427	0.142425	0.028708	0.069117	0.034391	0.016225	0.096346	0.023282	0.01106	0.600656	0.116902	0.088343
2.492	0.137344	0.196629	0.039603	0.023996	0.124912	0.146533	0.029396	0.069967	0.034913	0.016217	0.084318	0.025489	0.011659	0.608807	0.12176	0.090949
2.496	0.1281	0.186748	0.040947	0.024635	0.125054	0.150009	0.029923	0.070626	0.035189	0.016153	0.073415	0.027926	0.012158	0.612931	0.126509	0.09288
2.5	0.119256	0.176285	0.042129	0.025165	0.12359	0.152562	0.030225	0.071073	0.035212	0.01604	0.063817	0.030612	0.012516	0.613005	0.131062	0.094118
2.504	0.110886	0.16552	0.043104	0.025563	0.120488	0.153816	0.030253	0.071231	0.034993	0.015881	0.055675	0.033559	0.012696	0.609071	0.135259	0.094717
2.508	0.103032	0.15478	0.043836	0.025818	0.115865	0.153547	0.029971	0.071021	0.034538	0.015676	0.049099	0.036776	0.012677	0.600857	0.138838	0.094728
2.512	0.09575	0.144447	0.044321	0.025941	0.110022	0.151702	0.029385	0.070485	0.033847	0.015427	0.044152	0.040262	0.012461	0.588021	0.141494	0.094156
2.516	0.089107	0.134859	0.044589	0.025977	0.103276	0.148412	0.028528	0.069764	0.032933	0.015136	0.040854	0.04403	0.012071	0.570291	0.142974	0.093008
2.52	0.083164	0.126245	0.044687	0.02598	0.095959	0.143769	0.02745	0.068983	0.031832	0.014805	0.039197	0.048117	0.011535	0.547586	0.143204	0.091357
2.524	0.078019	0.118706	0.044674	0.02601	0.088407	0.13787	0.026219	0.068232	0.030601	0.014445	0.039151	0.052585	0.01089	0.520105	0.142238	0.089295
2.528	0.073751	0.11222	0.044601	0.026127	0.080889	0.130841	0.024894	0.067564	0.029299	0.014061	0.040671	0.057467	0.010178	0.488205	0.140243	0.086936
2.532	0.070397	0.106687	0.044527	0.02639	0.073593	0.122783	0.023533	0.067019	0.027967	0.013656	0.043705	0.062758	0.009435	0.452771	0.137354	0.084355
2.536	0.067975	0.102012	0.044523	0.026862	0.066631	0.113777	0.022186	0.066662	0.026622	0.013229	0.048184	0.068433	0.008692	0.415401	0.133667	0.081559
2.54	0.066482	0.098118	0.04466	0.027606	0.060048	0.10393	0.020887	0.066557	0.02527	0.012778	0.054013	0.074452	0.007966	0.377861	0.129257	0.078514
2.544	0.065888	0.094909	0.044978	0.02867	0.053861	0.093494	0.019662	0.066734	0.023906	0.012299	0.061081	0.080773	0.007272	0.341805	0.124197	0.075175
2.548	0.066128	0.092254	0.04549	0.030073	0.048094	0.08284	0.018532	0.067184	0.02252	0.011796	0.069256	0.087351	0.00662	0.308557	0.118497	0.071532
2.552	0.067113	0.08997	0.046167	0.0318	0.042797	0.072306	0.01751	0.067857	0.021112	0.011276	0.078392	0.094107	0.006018	0.279109	0.112166	0.067622
2.556	0.068708	0.087894	0.046934	0.033805	0.038027	0.06217	0.016604	0.06865	0.019683	0.010748	0.0883	0.100883	0.005474	0.254141	0.105245	0.06354
2.56	0.070758	0.085942	0.047675	0.036004	0.033826	0.052644	0.015815	0.06941	0.018249	0.010223	0.098779	0.107426	0.00499	0.234016	0.097892	0.059415
2.564	0.073123	0.084161	0.048241	0.038283	0.030229	0.043873	0.015138	0.069959	0.016839	0.009705	0.109661	0.113404	0.004565	0.218821	0.090371	0.055363
2.568	0.075686	0.082636	0.04851	0.040532	0.02725	0.035944	0.014556	0.07014	0.015482	0.009193	0.120772	0.11844	0.004196	0.208416	0.082944	0.051488
2.572	0.078383	0.081458	0.048468	0.042692	0.024872	0.028899	0.014057	0.069936	0.014203	0.008683	0.131974	0.12229	0.003876	0.202474	0.075812	0.047858
2.576	0.081243	0.080731	0.04822	0.044786	0.023052	0.022744	0.013644	0.069461	0.013019	0.008175	0.143228	0.124966	0.003596	0.20048	0.069092	0.044493
2.58	0.0843	0.080555	0.047885	0.046852	0.021728	0.017455	0.013329	0.06886	0.011937	0.007675	0.154469	0.126655	0.003346	0.201764	0.062852	0.04138
2.584	0.087525	0.080981	0.047544	0.04889	0.02082	0.012989	0.013128	0.068216	0.01096	0.007191	0.165498	0.12758	0.003118	0.205669	0.057153	0.038481
2.588	0.090815	0.08198	0.047231	0.050857	0.02024	0.00929	0.013063	0.067573	0.010088	0.006727	0.175963	0.127903	0.002909	0.211585	0.052052	0.035759
2.592	0.094024	0.083476	0.046945	0.052677	0.019885	0.006291	0.013154	0.066967	0.009319	0.006283	0.185425	0.127663	0.002715	0.218878	0.047574	0.033195
2.596	0.097019	0.08535	0.046653	0.054273	0.01965	0.003916	0.01341	0.066442	0.008655	0.005861	0.193415	0.126793	0.002539	0.226838	0.043705	0.030801
2.6	0.099674	0.087454	0.046332	0.055585	0.01944	0.002087	0.013834	0.066019	0.008099	0.005464	0.199568	0.125201	0.002382	0.23473	0.040386	0.028596
2.604	0.101908	0.089666	0.045974	0.05657	0.019167	0.000724	0.014426	0.065668	0.007648	0.005093	0.203732	0.122794	0.002244	0.241992	0.03755	0.026591
2.608	0.103695	0.091883	0.045568	0.057187	0.01877	0	0.015189	0.065309	0.00729	0.004751	0.205968	0.119594	0.002126	0.248407	0.035137	0.02478
2.612	0.105053	0.094042	0.045063	0.0574	0.018207	0	0.016123	0.064843	0.007009	0.004438	0.206448	0.115678	0.002027	0.253897	0.033107	0.023135
2.616	0.105973	0.096122	0.044393	0.05717	0.017475	0	0.017218	0.06417	0.006782	0.004155	0.20538	0.111153	0.001945	0.258424	0.03141	0.021614
2.62	0.106392	0.098158	0.043492	0.056482	0.016605	0	0.018455	0.063196	0.006588	0.003904	0.203021	0.106127	0.00188	0.261914	0.029969	0.020166
2.624	0.106222	0.100176	0.042311	0.055321	0.01564	0	0.019803	0.061851	0.006411	0.003687	0.199629	0.100726	0.001829	0.264279	0.028678	0.018749
2.628	0.105379	0.102137	0.040854	0.053676	0.014637	0	0.021222	0.060107	0.006238	0.003504	0.195353	0.095044	0.001792	0.265453	0.02742	0.017333
2.632	0.103799	0.103913	0.039201	0.051589	0.013654	0	0.022659	0.058019	0.006058	0.003352	0.190172	0.089217	0.001766	0.265409	0.02608	0.015909
2.636	0.101467	0.10528	0.03748	0.049184	0.012751	0	0.024051	0.055724	0.005862	0.003231	0.184026	0.083512	0.001753	0.264222	0.02457	0.014476
2.64	0.098359	0.105995	0.035825	0.046637	0.011993	0	0.025327	0.053403	0.00564	0.00314	0.176934	0.078257	0.00175	0.262008	0.022861	0.013049
2.644	0.094444	0.10585	0.03435	0.044115	0.011452	0	0.026406	0.051215	0.005389	0.003076	0.168995	0.07375	0.001758	0.258874	0.020971	0.01165
2.648	0.089778	0.104779	0.033149	0.041755	0.011204	0	0.027212	0.049283	0.005112	0.003039	0.160416	0.070258	0.001774	0.254865	0.018953	0.010306
2.652	0.084554	0.102822	0.032296	0.03966	0.011323	0	0.027684	0.047702	0.004818	0.003026	0.151475	0.068034	0.001799	0.25008	0.01687	0.009043
2.656	0.079	0.100115	0.031846	0.037912	0.011874	0	0.027784	0.04654	0.004517	0.003031	0.142358	0.067297	0.001831	0.244632	0.014797	0.007883
2.66	0.073339	0.096806	0.031842	0.036577	0.012918	0.000172	0.0275	0.045826	0.004222	0.003049	0.133231	0.068224	0.001868	0.238524	0.012799	0.006838
2.664	0.067759	0.09307	0.032317	0.035703	0.014518	0.000436	0.026867	0.045565	0.00394	0.003076	0.124226	0.070941	0.001906	0.231618	0.010929	0.005916
2.668	0.062406	0.08903	0.033286	0.035315	0.016747	0.000727	0.025951	0.04575	0.003679	0.003102	0.115482	0.075542	0.001944	0.223672	0.009228	0.005116
2.672	0.057382	0.084772	0.034753	0.035422	0.019684	0.001061	0.024833	0.046351	0.00344	0.003121	0.107066	0.082112	0.001981	0.214531	0.007728	0.00443
2.676	0.052746	0.080312	0.036718	0.036012	0.023411	0.001458	0.023569	0.047348	0.003229	0.003128	0.098989	0.090699	0.002017	0.204135	0.006456	0.00385
2.68	0.04853	0.075626	0.039195	0.037067	0.027998	0.001945	0.022201	0.048746	0.003045	0.003115	0.09121	0.101289	0.00205	0.192695	0.005432	0.003362
2.684	0.044769	0.070733	0.042216	0.038577	0.033503	0.00255	0.020769	0.050617	0.002894	0.003083	0.083646	0.113799	0.002079	0.180553	0.004668	0.00296
2.688	0.041514	0.065722	0.045813	0.040524	0.039967	0.003305	0.019307	0.053066	0.00278	0.003034	0.076253	0.128072	0.002107	0.168074	0.004175	0.002638
2.692	0.038832	0.060714	0.049996	0.042872	0.047417	0.00424	0.017852	0.056183	0.002712	0.002972	0.069091	0.143874	0.002134	0.155595	0.00396	0.002401
2.696	0.036794	0.055841	0.054746	0.045578	0.055848	0.005389	0.016438	0.06007	0.002697	0.002905	0.062269	0.160855	0.002163	0.143395	0.004031	0.002252
2.7	0.035449	0.051207	0.060014	0.048606	0.065237	0.006786	0.015099	0.064832	0.002744	0.002837	0.055867	0.178537	0.002197	0.131743	0.004393	0.002198
2.704	0.034812	0.046886	0.065737	0.051905	0.07553	0.008467	0.013862	0.070561	0.002858	0.002773	0.049918	0.196374	0.002239	0.12092	0.00505	0.002241
2.708	0.034873	0.042927	0.071856	0.055409	0.086622	0.010463	0.012746	0.077304	0.003042	0.00272	0.044406	0.213849	0.002291	0.111146	0.006	0.002381
2.712	0.035586	0.039374	0.07834	0.059072	0.098364	0.012804	0.011766	0.08506	0.003297	0.002684	0.039274	0.230697	0.002356	0.102536	0.00724	0.002619
2.716	0.036879	0.036276	0.085163	0.062862	0.11063	0.015509	0.010926	0.09382	0.003625	0.00267	0.034506	0.24691	0.002435	0.095092	0.008761	0.002951
2.72	0.038663	0.033675	0.09227	0.066749	0.123325	0.018593	0.010232	0.10361	0.004024	0.002685	0.030134	0.262547	0.002532	0.08876	0.010548	0.003374
2.724	0.040858	0.031623	0.099603	0.070733	0.13641	0.022077	0.009693	0.114419	0.004497	0.002737	0.026204	0.27757	0.002652	0.083442	0.012583	0.003886
2.728	0.043393	0.03018	0.107214	0.07487	0.14977	0.025981	0.009315	0.126209	0.005042	0.002832	0.02277	0.291897	0.002801	0.079007	0.01484	0.004483
2.732	0.0462	0.029402	0.115283	0.07928	0.16317	0.030314	0.009105	0.138974	0.005662	0.002977	0.019898	0.30559	0.002995	0.075348	0.017284	0.005163
2.736	0.049179	0.029335	0.124057	0.084118	0.176314	0.035067	0.009058	0.152696	0.006354	0.003178	0.017654	0.318848	0.003248	0.072419	0.01987	0.00592
2.74	0.052199	0.03	0.133808	0.089601	0.1889	0.040222	0.009167	0.167374	0.007112	0.003436	0.016095	0.331902	0.003577	0.070199	0.022546	0.006739
2.744	0.055121	0.031393	0.14481	0.095996	0.200577	0.045757	0.009425	0.183009	0.007926	0.00375	0.01526	0.345031	0.003998	0.068637	0.025267	0.007608
2.748	0.057824	0.033494	0.157373	0.103583	0.21108	0.051625	0.009813	0.199561	0.00878	0.004117	0.015176	0.358394	0.004535	0.067649	0.028011	0.00851
2.812	0.067935	0.136255	0.561784	0.458476	0.166139	0.122898	0.017456	0.59319	0.010075	0.010908	0.088399	0.583333	0.041212	0.109542	0.028353	0.01306
2.816	0.066622	0.143129	0.580354	0.481271	0.149281	0.121345	0.017558	0.612934	0.009413	0.011193	0.092408	0.589149	0.044387	0.113015	0.025047	0.012555
2.82	0.065172	0.149822	0.594573	0.501632	0.132457	0.118871	0.017608	0.631278	0.008796	0.011461	0.095761	0.593375	0.047399	0.11591	0.021933	0.01206
2.824	0.063594	0.156239	0.604694	0.51938	0.116099	0.115484	0.017604	0.64857	0.008227	0.011696	0.098355	0.596164	0.050215	0.118369	0.019067	0.011582
2.828	0.061956	0.162289	0.611307	0.534459	0.100545	0.11115	0.017548	0.665427	0.007707	0.011872	0.100076	0.597752	0.05281	0.120651	0.016479	0.011123
2.832	0.060338	0.167878	0.614971	0.546728	0.086016	0.105841	0.017455	0.682329	0.007233	0.011957	0.100803	0.598569	0.055142	0.123016	0.014179	0.010682
2.836	0.058826	0.172836	0.615941	0.555997	0.07267	0.099594	0.01734	0.699377	0.006802	0.011927	0.10038	0.598986	0.05713	0.125671	0.012161	0.010259
2.84	0.057516	0.17689	0.614423	0.56205	0.06062	0.092604	0.017229	0.71659	0.006409	0.011771	0.098712	0.599021	0.058677	0.128717	0.010405	0.009856
2.844	0.056531	0.179766	0.610704	0.564867	0.049917	0.085136	0.017146	0.733795	0.006048	0.011502	0.095825	0.598307	0.059705	0.132134	0.008886	0.009478
2.848	0.055987	0.181234	0.604906	0.56425	0.04056	0.077466	0.017119	0.750498	0.005715	0.011149	0.091845	0.596225	0.060193	0.135806	0.007578	0.009131
2.852	0.055969	0.181116	0.596979	0.559738	0.032512	0.069842	0.017164	0.765926	0.005407	0.010736	0.086934	0.591983	0.060123	0.139555	0.006464	0.008824
2.856	0.05654	0.179217	0.586645	0.550745	0.025702	0.06246	0.017297	0.779693	0.005127	0.010287	0.081288	0.584941	0.059487	0.14321	0.005525	0.008566
2.86	0.057748	0.175365	0.573621	0.536699	0.020042	0.055473	0.017523	0.792066	0.004874	0.009821	0.075123	0.575019	0.058303	0.146693	0.004747	0.008365
2.864	0.059601	0.169557	0.557792	0.517363	0.015429	0.049003	0.017841	0.803457	0.004652	0.009351	0.068626	0.562327	0.056631	0.149962	0.004113	0.008222
2.868	0.062067	0.161908	0.539375	0.492936	0.011755	0.04313	0.018246	0.814012	0.004459	0.00889	0.061986	0.546924	0.054576	0.152998	0.003606	0.008134
2.872	0.065092	0.152652	0.518911	0.464243	0.008903	0.037896	0.018732	0.823534	0.004294	0.008451	0.055379	0.529174	0.052272	0.15578	0.00321	0.00809
2.876	0.068603	0.142094	0.496906	0.432393	0.006754	0.033319	0.019286	0.831208	0.004155	0.008043	0.048946	0.509376	0.049856	0.15821	0.002911	0.008079
2.88	0.072486	0.130595	0.473904	0.398483	0.005203	0.029397	0.019882	0.835565	0.004044	0.007672	0.042821	0.487738	0.047429	0.160055	0.002693	0.008096
2.884	0.076572	0.11853	0.450314	0.36343	0.004144	0.0261	0.020487	0.834696	0.003955	0.007342	0.037104	0.464363	0.045044	0.160997	0.002544	0.008131
2.888	0.080638	0.106283	0.426529	0.327997	0.003479	0.023373	0.021063	0.826858	0.003884	0.007048	0.031865	0.439221	0.042711	0.160752	0.002451	0.008171
2.892	0.084425	0.094176	0.402833	0.2929	0.003123	0.021138	0.02158	0.811031	0.003821	0.006784	0.02715	0.412297	0.040404	0.159159	0.002402	0.0082
2.896	0.087724	0.082455	0.379279	0.258765	0.003012	0.019311	0.022004	0.787403	0.003756	0.006544	0.022978	0.383827	0.038085	0.156184	0.002384	0.008196
2.9	0.090382	0.071307	0.35573	0.226148	0.003097	0.017821	0.02231	0.757097	0.003678	0.006322	0.019339	0.35438	0.035734	0.151927	0.002386	0.008143
2.904	0.092372	0.060864	0.331944	0.195471	0.003338	0.016632	0.022503	0.721953	0.003584	0.00611	0.016208	0.324597	0.033371	0.146589	0.002396	0.008027
2.908	0.093727	0.051253	0.307599	0.167043	0.003703	0.015715	0.02259	0.683722	0.00347	0.005906	0.013555	0.294908	0.031034	0.140348	0.002405	0.007841
2.912	0.094481	0.042573	0.282417	0.141054	0.004163	0.015043	0.022596	0.643609	0.003339	0.005712	0.011345	0.26563	0.028753	0.133276	0.002407	0.007584
2.916	0.094707	0.03488	0.256382	0.117584	0.004688	0.014579	0.022547	0.602411	0.003199	0.005539	0.009538	0.236932	0.026543	0.125441	0.002403	0.007264
2.92	0.094486	0.028182	0.229838	0.096626	0.005249	0.01428	0.022465	0.561016	0.003058	0.005403	0.008092	0.209042	0.024402	0.117047	0.002395	0.006897
2.924	0.093856	0.022452	0.203265	0.078108	0.005826	0.014103	0.022374	0.52033	0.002922	0.005318	0.006957	0.182305	0.022317	0.108379	0.002386	0.006494
2.928	0.092784	0.017636	0.177181	0.061922	0.00641	0.014004	0.022313	0.480964	0.002797	0.005294	0.006087	0.157046	0.020276	0.0997	0.002377	0.006069
2.932	0.091165	0.013664	0.152158	0.047954	0.006989	0.013934	0.022328	0.44324	0.002689	0.005345	0.005436	0.133518	0.018283	0.091199	0.002366	0.005637
2.936	0.088852	0.010454	0.128691	0.036085	0.007547	0.013859	0.022449	0.407421	0.002602	0.005481	0.004961	0.111947	0.016361	0.083067	0.002354	0.005209
2.94	0.08574	0.007916	0.107138	0.026183	0.008076	0.013763	0.022698	0.373778	0.002546	0.005709	0.004617	0.092493	0.014536	0.075513	0.002338	0.004796
2.944	0.081803	0.005958	0.087731	0.0181	0.008574	0.013649	0.023084	0.342381	0.002529	0.006037	0.004363	0.075253	0.012827	0.06872	0.002316	0.004403
2.948	0.077108	0.004493	0.070583	0.01167	0.009036	0.013527	0.023612	0.313123	0.002559	0.006467	0.004167	0.060244	0.011247	0.062835	0.002288	0.004032
2.952	0.071847	0.003443	0.055711	0.006715	0.009456	0.0134	0.024292	0.285782	0.002647	0.007005	0.004008	0.047406	0.009807	0.05799	0.002256	0.003683
2.956	0.066247	0.002738	0.043057	0.003056	0.009829	0.013269	0.025124	0.260022	0.002799	0.00766	0.003878	0.036613	0.008516	0.054313	0.002223	0.003356
2.96	0.060516	0.002315	0.032507	0.000515	0.010158	0.013133	0.026107	0.235515	0.003021	0.008442	0.003771	0.027716	0.00738	0.051921	0.002192	0.003049
2.964	0.054807	0.002119	0.023911	0	0.010455	0.012992	0.027231	0.211956	0.00332	0.009354	0.003676	0.020579	0.006399	0.050939	0.002163	0.002762
2.968	0.049231	0.002098	0.0171	0	0.010732	0.012845	0.02847	0.189206	0.003703	0.010395	0.003588	0.015067	0.005564	0.051519	0.002137	0.002492
2.972	0.043875	0.002209	0.011906	0	0.010997	0.012685	0.029774	0.167411	0.004174	0.011558	0.003502	0.011027	0.004866	0.053867	0.00211	0.00224
2.976	0.038818	0.002412	0.00817	0	0.011251	0.012511	0.03107	0.146947	0.004741	0.012838	0.003417	0.008301	0.004295	0.058201	0.002082	0.002004
2.98	0.03412	0.002674	0.005742	0	0.011493	0.012319	0.032275	0.12822	0.005408	0.014224	0.003332	0.006723	0.003835	0.064699	0.002051	0.001786
2.984	0.029827	0.002967	0.004472	0.000468	0.011713	0.012108	0.033303	0.111532	0.006182	0.015702	0.003247	0.006126	0.003473	0.073497	0.002017	0.001587
2.988	0.025959	0.003265	0.004216	0.001996	0.011898	0.011878	0.034065	0.097074	0.007069	0.01725	0.003163	0.006342	0.003193	0.084675	0.001981	0.001409
2.992	0.022513	0.003553	0.004827	0.003763	0.012032	0.011626	0.034485	0.084947	0.008076	0.018839	0.00308	0.007204	0.002981	0.098244	0.001946	0.001253
2.996	0.019481	0.003818	0.00616	0.005709	0.012096	0.011345	0.034515	0.075161	0.009204	0.020434	0.002997	0.00856	0.002825	0.114124	0.001913	0.001119
3	0.01686	0.00405	0.008068	0.007776	0.012074	0.011025	0.034152	0.067626	0.010449	0.021995	0.002915	0.01029	0.002709	0.132133	0.001884	0.001008
3.004	0.014641	0.004244	0.0104	0.009906	0.011953	0.010661	0.033422	0.062169	0.0118	0.023472	0.002831	0.012283	0.002623	0.151964	0.001859	0.000921
3.008	0.012798	0.004394	0.013001	0.012036	0.011724	0.010256	0.032351	0.058542	0.013233	0.024805	0.002745	0.014424	0.002553	0.173162	0.001838	0.000857
3.012	0.011302	0.004492	0.015719	0.014098	0.011394	0.009814	0.031006	0.056432	0.014712	0.025933	0.002656	0.016608	0.00249	0.195167	0.001822	0.000817
3.016	0.010118	0.004537	0.018399	0.016015	0.010984	0.009343	0.029471	0.055486	0.016191	0.026813	0.002565	0.018736	0.002429	0.21746	0.001808	0.000802
3.02	0.009206	0.004526	0.020905	0.017715	0.010518	0.008859	0.02782	0.055351	0.01761	0.027397	0.002476	0.020713	0.002366	0.239627	0.001795	0.000813
3.024	0.008525	0.004465	0.02314	0.019149	0.01002	0.008378	0.026118	0.055758	0.01891	0.027641	0.002391	0.022463	0.002298	0.261221	0.001783	0.000851
3.028	0.008027	0.004362	0.025069	0.020312	0.009514	0.007915	0.024417	0.056537	0.020033	0.027537	0.002315	0.023937	0.002224	0.28191	0.001771	0.00092
3.032	0.007674	0.004228	0.026695	0.021224	0.009017	0.00748	0.022761	0.057558	0.02094	0.02707	0.002248	0.025136	0.002146	0.301412	0.001762	0.001024
3.036	0.007436	0.004072	0.028042	0.021918	0.008542	0.007081	0.021174	0.058696	0.021608	0.026233	0.002197	0.026084	0.002065	0.319484	0.001757	0.001167
3.04	0.007295	0.003904	0.029124	0.022422	0.008102	0.006718	0.019667	0.059812	0.022036	0.025075	0.002163	0.026814	0.001988	0.335969	0.001766	0.001355
3.044	0.007232	0.00373	0.029948	0.022755	0.007702	0.006388	0.01825	0.060761	0.022253	0.023681	0.002149	0.02737	0.001917	0.350718	0.001795	0.001593
3.048	0.007234	0.003557	0.030534	0.022936	0.007347	0.006083	0.016937	0.061436	0.022305	0.022147	0.002158	0.027788	0.001857	0.363536	0.001853	0.001887
3.052	0.007285	0.003389	0.030912	0.022988	0.007038	0.005796	0.015736	0.061781	0.022237	0.020559	0.002189	0.028111	0.00181	0.374322	0.00195	0.002241
3.056	0.007375	0.00323	0.031106	0.022937	0.006776	0.00552	0.014652	0.06177	0.022094	0.018987	0.002241	0.028393	0.001775	0.383192	0.002093	0.002665
