datacolumns 17
datarows 1739
time	addmag_r	bicfemlh_r	gaslat_r	gasmed_r	gmax_r	gmed_r	gra_r	perlong_r	recfem_r	sar_r	semimem_r	sol_r	tfl_r	tibant_r	vaslat_r	vasmed_r
2.19	0.004982	0.003363	0.011235	0.00927	0.005468	0.010657	0.008897	0.026587	0.00997	0.014675	0	0.015548	0.007537	0.298994	0.001654	0.0016
2.1905	0.004974	0.00337	0.011198	0.009225	0.005487	0.01074	0.008848	0.026568	0.009939	0.014717	0	0.015456	0.007468	0.299129	0.001666	0.001601
2.191	0.004966	0.003377	0.01116	0.009179	0.005507	0.010825	0.008799	0.026549	0.009909	0.014758	0	0.015362	0.007399	0.299252	0.001678	0.001602
2.1915	0.004959	0.003383	0.011122	0.009133	0.005527	0.010911	0.008749	0.026529	0.009879	0.014799	0	0.015268	0.007331	0.299361	0.00169	0.001603
2.192	0.004953	0.00339	0.011084	0.009087	0.005547	0.011	0.008699	0.026508	0.00985	0.014838	0	0.015172	0.007262	0.299456	0.001702	0.001605
2.1925	0.004947	0.003397	0.011046	0.00904	0.005569	0.011092	0.008648	0.026486	0.009821	0.014877	0	0.015076	0.007193	0.299536	0.001715	0.001606
2.193	0.004941	0.003404	0.011007	0.008993	0.00559	0.011185	0.008597	0.026464	0.009793	0.014915	0	0.01498	0.007125	0.2996	0.001729	0.001608
2.1935	0.004936	0.003411	0.010969	0.008945	0.005613	0.011281	0.008546	0.02644	0.009766	0.014952	0	0.014882	0.007057	0.299648	0.001742	0.00161
2.194	0.004932	0.003417	0.01093	0.008897	0.005636	0.011379	0.008495	0.026416	0.009739	0.014987	0	0.014784	0.006989	0.299677	0.001756	0.001612
2.1945	0.004928	0.003424	0.010891	0.008848	0.005659	0.011479	0.008443	0.02639	0.009712	0.015022	0	0.014686	0.006922	0.299688	0.001771	0.001615
2.195	0.004924	0.003431	0.010852	0.008799	0.005683	0.011581	0.008391	0.026363	0.009686	0.015055	0	0.014586	0.006854	0.299679	0.001786	0.001618
2.1955	0.004922	0.003437	0.010813	0.008749	0.005708	0.011686	0.008339	0.026335	0.00966	0.015087	0	0.014487	0.006788	0.299649	0.001801	0.001621
2.196	0.004919	0.003444	0.010774	0.008699	0.005733	0.011793	0.008286	0.026306	0.009634	0.015118	0	0.014387	0.006721	0.299596	0.001816	0.001624
2.1965	0.004918	0.00345	0.010734	0.008649	0.005759	0.011902	0.008234	0.026276	0.009609	0.015147	0	0.014286	0.006655	0.29952	0.001832	0.001627
2.197	0.004917	0.003457	0.010695	0.008598	0.005786	0.012014	0.008181	0.026244	0.009584	0.015174	0	0.014185	0.006589	0.29942	0.001848	0.001631
2.1975	0.004917	0.003463	0.010655	0.008546	0.005813	0.012127	0.008128	0.02621	0.00956	0.0152	0	0.014083	0.006524	0.299294	0.001865	0.001635
2.198	0.004918	0.00347	0.010615	0.008495	0.00584	0.012243	0.008074	0.026175	0.009535	0.015224	0	0.013981	0.006459	0.299141	0.001882	0.001639
2.1985	0.00492	0.003476	0.010575	0.008442	0.005869	0.012362	0.008021	0.026139	0.009511	0.015246	0	0.013879	0.006394	0.29896	0.001899	0.001643
2.199	0.004922	0.003482	0.010534	0.008389	0.005897	0.012482	0.007967	0.0261	0.009487	0.015266	0	0.013777	0.00633	0.29875	0.001917	0.001648
2.1995	0.004925	0.003489	0.010493	0.008336	0.005927	0.012605	0.007914	0.02606	0.009463	0.015284	0	0.013674	0.006267	0.29851	0.001934	0.001653
2.2	0.004929	0.003495	0.010452	0.008282	0.005956	0.01273	0.00786	0.026018	0.009439	0.015299	0	0.01357	0.006204	0.298239	0.001953	0.001658
2.2005	0.004934	0.003501	0.010411	0.008228	0.005987	0.012857	0.007806	0.025974	0.009415	0.015313	0	0.013467	0.006141	0.297936	0.001971	0.001663
2.201	0.00494	0.003508	0.010369	0.008173	0.006018	0.012987	0.007752	0.025927	0.009391	0.015324	0	0.013363	0.00608	0.297599	0.00199	0.001669
2.2015	0.004947	0.003514	0.010327	0.008118	0.006049	0.013119	0.007698	0.025879	0.009368	0.015333	0	0.013259	0.006018	0.297228	0.002009	0.001675
2.202	0.004955	0.00352	0.010285	0.008063	0.006081	0.013253	0.007644	0.025828	0.009344	0.01534	0	0.013154	0.005958	0.296822	0.002029	0.001681
2.2025	0.004965	0.003526	0.010242	0.008006	0.006114	0.013389	0.00759	0.025776	0.00932	0.015345	0	0.01305	0.005898	0.296381	0.002049	0.001687
2.203	0.004975	0.003533	0.010199	0.00795	0.006147	0.013528	0.007536	0.02572	0.009296	0.015346	0	0.012945	0.005839	0.295902	0.002069	0.001694
2.2035	0.004986	0.003539	0.010155	0.007893	0.006181	0.013668	0.007482	0.025663	0.009272	0.015346	0	0.012839	0.00578	0.295386	0.002089	0.001701
2.204	0.004999	0.003545	0.010111	0.007836	0.006215	0.013811	0.007428	0.025603	0.009248	0.015343	0	0.012733	0.005722	0.294831	0.00211	0.001709
2.2045	0.005013	0.003552	0.010067	0.007778	0.00625	0.013957	0.007374	0.02554	0.009223	0.015337	0	0.012627	0.005665	0.294236	0.002131	0.001717
2.205	0.005028	0.003558	0.010022	0.007719	0.006285	0.014104	0.00732	0.025475	0.009198	0.015329	0	0.012521	0.005608	0.293601	0.002153	0.001725
2.2055	0.005045	0.003564	0.009976	0.007661	0.006321	0.014254	0.007266	0.025407	0.009173	0.015318	0	0.012414	0.005553	0.292926	0.002174	0.001733
2.206	0.005063	0.003571	0.00993	0.007602	0.006357	0.014406	0.007213	0.025337	0.009148	0.015304	0	0.012307	0.005498	0.292208	0.002196	0.001741
2.2065	0.005082	0.003577	0.009884	0.007542	0.006394	0.014559	0.007159	0.025264	0.009122	0.015287	0	0.012199	0.005444	0.29145	0.002219	0.00175
2.207	0.005103	0.003584	0.009837	0.007482	0.006431	0.014716	0.007105	0.025188	0.009096	0.015268	0	0.012092	0.00539	0.290649	0.002241	0.00176
2.2075	0.005125	0.00359	0.009789	0.007422	0.006468	0.014874	0.007052	0.025109	0.009069	0.015246	0	0.011983	0.005338	0.289806	0.002264	0.001769
2.208	0.005149	0.003597	0.009741	0.007361	0.006506	0.015034	0.006998	0.025028	0.009042	0.01522	0	0.011875	0.005286	0.288921	0.002287	0.001779
2.2085	0.005175	0.003604	0.009692	0.0073	0.006545	0.015196	0.006945	0.024944	0.009014	0.015192	0	0.011766	0.005235	0.287994	0.00231	0.001789
2.209	0.005202	0.003611	0.009642	0.007239	0.006584	0.015361	0.006892	0.024857	0.008985	0.015161	0	0.011657	0.005185	0.287026	0.002334	0.0018
2.2095	0.005232	0.003618	0.009593	0.007177	0.006623	0.015527	0.006839	0.024768	0.008956	0.015126	0	0.011548	0.005135	0.286017	0.002357	0.001811
2.21	0.005262	0.003625	0.009542	0.007116	0.006662	0.015695	0.006787	0.024675	0.008926	0.015089	0	0.011438	0.005087	0.284967	0.002381	0.001822
2.2105	0.005295	0.003633	0.009491	0.007054	0.006702	0.015865	0.006734	0.02458	0.008896	0.015048	0	0.011329	0.005039	0.283877	0.002406	0.001833
2.211	0.00533	0.00364	0.00944	0.006992	0.006742	0.016037	0.006682	0.024482	0.008864	0.015004	0	0.011219	0.004992	0.282746	0.00243	0.001845
2.2115	0.005367	0.003648	0.009388	0.006929	0.006783	0.01621	0.00663	0.024381	0.008832	0.014957	0	0.011109	0.004946	0.281576	0.002455	0.001858
2.212	0.005405	0.003656	0.009335	0.006867	0.006823	0.016385	0.006578	0.024278	0.008799	0.014907	0	0.010999	0.004901	0.280367	0.002479	0.00187
2.2125	0.005446	0.003665	0.009283	0.006805	0.006864	0.016562	0.006527	0.024171	0.008765	0.014853	0	0.010888	0.004857	0.279119	0.002505	0.001883
2.213	0.005489	0.003673	0.00923	0.006742	0.006905	0.016741	0.006475	0.024063	0.008731	0.014797	0	0.010778	0.004814	0.277834	0.00253	0.001896
2.2135	0.005534	0.003682	0.009176	0.00668	0.006947	0.016921	0.006425	0.023951	0.008695	0.014738	0	0.010668	0.004771	0.276512	0.002555	0.00191
2.214	0.005582	0.003691	0.009123	0.006617	0.006988	0.017102	0.006374	0.023837	0.008659	0.014675	0	0.010557	0.00473	0.275155	0.002581	0.001924
2.2145	0.005632	0.0037	0.009069	0.006555	0.00703	0.017285	0.006324	0.023721	0.008622	0.014609	0	0.010447	0.004689	0.273764	0.002607	0.001938
2.215	0.005684	0.00371	0.009014	0.006493	0.007072	0.017469	0.006274	0.023602	0.008583	0.014541	0	0.010337	0.004649	0.27234	0.002633	0.001953
2.2155	0.005739	0.00372	0.00896	0.006431	0.007113	0.017655	0.006225	0.023481	0.008545	0.014469	0	0.010227	0.00461	0.270884	0.002659	0.001968
2.216	0.005796	0.003731	0.008906	0.006369	0.007155	0.017841	0.006176	0.023357	0.008505	0.014394	0	0.010118	0.004572	0.269397	0.002686	0.001983
2.2165	0.005856	0.003742	0.008851	0.006308	0.007197	0.018029	0.006127	0.023232	0.008464	0.014317	0	0.010009	0.004535	0.267881	0.002712	0.001999
2.217	0.005919	0.003753	0.008796	0.006246	0.007239	0.018218	0.006079	0.023105	0.008422	0.014237	0	0.0099	0.004499	0.266336	0.002739	0.002015
2.2175	0.005985	0.003764	0.008742	0.006185	0.007281	0.018408	0.006031	0.022975	0.00838	0.014153	0	0.009792	0.004463	0.264764	0.002766	0.002031
2.218	0.006053	0.003777	0.008687	0.006124	0.007323	0.018599	0.005984	0.022844	0.008337	0.014067	0	0.009684	0.004429	0.263165	0.002793	0.002048
2.2185	0.006124	0.003789	0.008632	0.006064	0.007364	0.018791	0.005937	0.022712	0.008293	0.013979	0	0.009577	0.004395	0.261539	0.00282	0.002065
2.219	0.006198	0.003802	0.008578	0.006004	0.007406	0.018983	0.00589	0.022578	0.008249	0.013887	0	0.00947	0.004362	0.259889	0.002847	0.002082
2.2195	0.006276	0.003816	0.008523	0.005944	0.007447	0.019177	0.005844	0.022442	0.008203	0.013793	0	0.009364	0.00433	0.258214	0.002874	0.0021
2.22	0.006356	0.00383	0.008468	0.005885	0.007488	0.019371	0.005799	0.022305	0.008157	0.013697	0	0.009259	0.004299	0.256516	0.002902	0.002118
2.2205	0.00644	0.003845	0.008414	0.005826	0.007529	0.019566	0.005754	0.022166	0.008111	0.013598	0	0.009154	0.004268	0.254794	0.002929	0.002137
2.221	0.006527	0.00386	0.008359	0.005768	0.00757	0.019761	0.005709	0.022027	0.008064	0.013497	0	0.00905	0.004239	0.25305	0.002957	0.002155
2.2215	0.006618	0.003876	0.008305	0.00571	0.00761	0.019957	0.005665	0.021886	0.008016	0.013393	0	0.008947	0.00421	0.251284	0.002985	0.002175
2.222	0.006712	0.003893	0.00825	0.005652	0.00765	0.020154	0.005622	0.021744	0.007968	0.013288	0	0.008844	0.004182	0.249497	0.003012	0.002194
2.2225	0.006809	0.00391	0.008196	0.005595	0.007689	0.02035	0.005579	0.021601	0.007919	0.01318	0	0.008743	0.004155	0.247689	0.00304	0.002214
2.223	0.00691	0.003928	0.008142	0.005539	0.007729	0.020547	0.005537	0.021457	0.00787	0.01307	0	0.008642	0.004128	0.245862	0.003068	0.002234
2.2235	0.007015	0.003947	0.008088	0.005483	0.007768	0.020744	0.005496	0.021312	0.00782	0.012958	3.4e-05	0.008542	0.004103	0.244015	0.003096	0.002254
2.224	0.007124	0.003967	0.008034	0.005428	0.007806	0.020941	0.005455	0.021167	0.00777	0.012845	0.000171	0.008443	0.004078	0.24215	0.003124	0.002275
2.2245	0.007236	0.003987	0.007981	0.005373	0.007844	0.021138	0.005415	0.02102	0.007719	0.012729	0.000313	0.008345	0.004054	0.240266	0.003152	0.002296
2.225	0.007353	0.004009	0.007927	0.005319	0.007882	0.021335	0.005376	0.020873	0.007668	0.012612	0.000461	0.008248	0.00403	0.238365	0.00318	0.002317
2.2255	0.007473	0.004031	0.007874	0.005265	0.007919	0.021531	0.005337	0.020726	0.007617	0.012493	0.000616	0.008152	0.004007	0.236447	0.003208	0.002339
2.226	0.007598	0.004054	0.007821	0.005212	0.007956	0.021727	0.005299	0.020578	0.007565	0.012373	0.000777	0.008057	0.003985	0.234511	0.003236	0.00236
2.2265	0.007727	0.004078	0.007768	0.00516	0.007992	0.021923	0.005262	0.020429	0.007513	0.012252	0.000944	0.007963	0.003964	0.23256	0.003264	0.002383
2.227	0.00786	0.004103	0.007715	0.005108	0.008028	0.022117	0.005226	0.02028	0.007461	0.012129	0.001117	0.00787	0.003943	0.230591	0.003292	0.002405
2.2275	0.007998	0.00413	0.007662	0.005056	0.008063	0.022311	0.00519	0.020131	0.007408	0.012005	0.001297	0.007778	0.003923	0.228608	0.00332	0.002428
2.228	0.00814	0.004157	0.00761	0.005006	0.008098	0.022504	0.005155	0.019982	0.007355	0.01188	0.001484	0.007686	0.003903	0.226609	0.003348	0.002451
2.2285	0.008287	0.004185	0.007558	0.004956	0.008132	0.022696	0.005121	0.019832	0.007302	0.011754	0.001678	0.007596	0.003884	0.224596	0.003375	0.002474
2.229	0.008438	0.004215	0.007506	0.004907	0.008166	0.022887	0.005088	0.019683	0.007249	0.011627	0.001878	0.007507	0.003866	0.222568	0.003403	0.002497
2.2295	0.008594	0.004245	0.007454	0.004858	0.008199	0.023077	0.005056	0.019533	0.007196	0.011498	0.002086	0.007419	0.003848	0.220527	0.003431	0.002521
2.23	0.008755	0.004277	0.007403	0.00481	0.008232	0.023265	0.005025	0.019384	0.007142	0.01137	0.0023	0.007332	0.00383	0.218473	0.003458	0.002545
2.2305	0.008921	0.00431	0.007351	0.004762	0.008263	0.023452	0.004994	0.019234	0.007089	0.01124	0.002523	0.007246	0.003814	0.216406	0.003486	0.002569
2.231	0.009092	0.004344	0.0073	0.004716	0.008295	0.023637	0.004965	0.019085	0.007035	0.01111	0.002752	0.007161	0.003797	0.214326	0.003513	0.002594
2.2315	0.009269	0.00438	0.00725	0.004669	0.008325	0.023821	0.004936	0.018937	0.006982	0.010979	0.002989	0.007077	0.003781	0.212235	0.003541	0.002618
2.232	0.00945	0.004417	0.007199	0.004624	0.008355	0.024002	0.004909	0.018788	0.006928	0.010848	0.003234	0.006995	0.003766	0.210132	0.003568	0.002643
2.2325	0.009637	0.004455	0.007149	0.004579	0.008385	0.024182	0.004882	0.01864	0.006874	0.010717	0.003486	0.006913	0.00375	0.208017	0.003595	0.002668
2.233	0.009829	0.004495	0.007099	0.004535	0.008414	0.02436	0.004856	0.018493	0.006821	0.010585	0.003747	0.006832	0.003736	0.205892	0.003623	0.002693
2.2335	0.010027	0.004537	0.007049	0.004491	0.008442	0.024536	0.004831	0.018346	0.006768	0.010454	0.004015	0.006753	0.003721	0.203756	0.00365	0.002719
2.234	0.01023	0.004579	0.007	0.004448	0.008469	0.02471	0.004807	0.0182	0.006714	0.010322	0.004291	0.006674	0.003707	0.201609	0.003677	0.002744
2.2345	0.01044	0.004624	0.00695	0.004406	0.008496	0.024881	0.004784	0.018054	0.006661	0.01019	0.004576	0.006597	0.003693	0.199452	0.003704	0.00277
2.235	0.010654	0.00467	0.006902	0.004364	0.008523	0.02505	0.004762	0.017909	0.006609	0.010059	0.004869	0.006521	0.00368	0.197285	0.003732	0.002796
2.2355	0.010875	0.004717	0.006853	0.004323	0.008548	0.025217	0.004741	0.017765	0.006556	0.009927	0.005171	0.006446	0.003667	0.195109	0.003759	0.002822
2.236	0.011102	0.004766	0.006805	0.004283	0.008573	0.025381	0.004721	0.017621	0.006503	0.009796	0.005481	0.006371	0.003654	0.192924	0.003786	0.002848
2.2365	0.011335	0.004817	0.006757	0.004243	0.008598	0.025543	0.004702	0.017478	0.006451	0.009665	0.0058	0.006298	0.003641	0.190731	0.003814	0.002874
2.237	0.011574	0.004869	0.006709	0.004204	0.008622	0.025701	0.004684	0.017336	0.006399	0.009535	0.006127	0.006226	0.003629	0.18853	0.003841	0.0029
2.2375	0.011819	0.004923	0.006662	0.004166	0.008645	0.025858	0.004667	0.017195	0.006348	0.009405	0.006464	0.006155	0.003616	0.186322	0.003869	0.002927
2.238	0.01207	0.004979	0.006615	0.004128	0.008668	0.026011	0.004651	0.017055	0.006296	0.009276	0.00681	0.006086	0.003604	0.184108	0.003897	0.002953
2.2385	0.012328	0.005037	0.006568	0.004091	0.00869	0.026162	0.004637	0.016915	0.006245	0.009147	0.007164	0.006017	0.003592	0.181888	0.003925	0.00298
2.239	0.012592	0.005097	0.006522	0.004055	0.008711	0.02631	0.004623	0.016777	0.006195	0.009019	0.007528	0.005949	0.00358	0.179664	0.003954	0.003006
2.2395	0.012863	0.005158	0.006476	0.004019	0.008732	0.026455	0.00461	0.016639	0.006144	0.008891	0.007902	0.005882	0.003568	0.177434	0.003983	0.003033
2.24	0.01314	0.005221	0.00643	0.003984	0.008753	0.026598	0.004598	0.016502	0.006094	0.008765	0.008285	0.005816	0.003557	0.175202	0.004012	0.003059
2.2405	0.013424	0.005287	0.006385	0.003949	0.008773	0.026737	0.004588	0.016366	0.006045	0.008639	0.008677	0.005752	0.003545	0.172967	0.004041	0.003086
2.241	0.013715	0.005354	0.00634	0.003915	0.008792	0.026874	0.004578	0.016232	0.005995	0.008514	0.009079	0.005688	0.003534	0.170731	0.00407	0.003113
2.2415	0.014013	0.005423	0.006296	0.003882	0.008811	0.027009	0.00457	0.016098	0.005947	0.00839	0.009491	0.005625	0.003522	0.168494	0.0041	0.003139
2.242	0.014317	0.005494	0.006251	0.003849	0.00883	0.02714	0.004562	0.015965	0.005898	0.008267	0.009913	0.005564	0.003511	0.166258	0.004131	0.003166
2.2425	0.014628	0.005567	0.006208	0.003817	0.008848	0.027269	0.004556	0.015834	0.00585	0.008145	0.010344	0.005503	0.0035	0.164023	0.004161	0.003192
2.243	0.014946	0.005643	0.006164	0.003786	0.008865	0.027395	0.004551	0.015703	0.005803	0.008024	0.010786	0.005443	0.003489	0.161791	0.004192	0.003218
2.2435	0.015271	0.00572	0.006121	0.003755	0.008882	0.027518	0.004547	0.015574	0.005756	0.007904	0.011238	0.005384	0.003477	0.159563	0.004224	0.003244
2.244	0.015604	0.005799	0.006078	0.003725	0.008899	0.027639	0.004544	0.015445	0.005709	0.007785	0.0117	0.005326	0.003466	0.15734	0.004256	0.00327
2.2445	0.015943	0.005881	0.006036	0.003695	0.008915	0.027757	0.004542	0.015318	0.005663	0.007667	0.012172	0.005269	0.003455	0.155122	0.004288	0.003296
2.245	0.016289	0.005965	0.005994	0.003666	0.008931	0.027871	0.004541	0.015192	0.005617	0.007551	0.012654	0.005213	0.003444	0.152911	0.004321	0.003322
2.2455	0.016643	0.00605	0.005952	0.003638	0.008947	0.027984	0.004542	0.015067	0.005572	0.007436	0.013148	0.005158	0.003433	0.150708	0.004354	0.003347
2.246	0.017004	0.006139	0.005911	0.00361	0.008962	0.028093	0.004543	0.014943	0.005528	0.007322	0.013651	0.005104	0.003422	0.148514	0.004388	0.003372
2.2465	0.017372	0.006229	0.00587	0.003583	0.008976	0.028199	0.004545	0.014821	0.005483	0.007209	0.014165	0.00505	0.00341	0.146328	0.004422	0.003397
2.247	0.017747	0.006321	0.00583	0.003556	0.008991	0.028303	0.004549	0.014699	0.00544	0.007098	0.01469	0.004998	0.003399	0.144153	0.004457	0.003422
2.2475	0.018129	0.006416	0.00579	0.00353	0.009004	0.028404	0.004554	0.014579	0.005396	0.006988	0.015226	0.004946	0.003388	0.141989	0.004493	0.003446
2.248	0.018519	0.006513	0.00575	0.003504	0.009018	0.028501	0.004559	0.01446	0.005354	0.00688	0.015772	0.004895	0.003377	0.139837	0.004529	0.003471
2.2485	0.018916	0.006613	0.005711	0.003479	0.009031	0.028596	0.004566	0.014342	0.005311	0.006773	0.016329	0.004845	0.003366	0.137697	0.004565	0.003494
2.249	0.019321	0.006714	0.005672	0.003455	0.009043	0.028688	0.004574	0.014225	0.00527	0.006667	0.016897	0.004797	0.003354	0.135571	0.004603	0.003518
2.2495	0.019733	0.006818	0.005633	0.003431	0.009056	0.028776	0.004583	0.01411	0.005228	0.006563	0.017476	0.004748	0.003343	0.133458	0.00464	0.003541
2.25	0.020152	0.006924	0.005595	0.003408	0.009067	0.028862	0.004592	0.013995	0.005187	0.006461	0.018066	0.004701	0.003332	0.131359	0.004679	0.003564
2.2505	0.020578	0.007033	0.005558	0.003385	0.009079	0.028944	0.004603	0.013882	0.005147	0.00636	0.018667	0.004655	0.00332	0.129275	0.004718	0.003586
2.251	0.021012	0.007144	0.005521	0.003363	0.009089	0.029024	0.004615	0.013771	0.005107	0.00626	0.019279	0.00461	0.003309	0.127207	0.004758	0.003608
2.2515	0.021453	0.007257	0.005484	0.003341	0.0091	0.0291	0.004628	0.01366	0.005068	0.006162	0.019903	0.004565	0.003297	0.125155	0.004798	0.00363
2.252	0.021902	0.007373	0.005448	0.00332	0.00911	0.029174	0.004642	0.013551	0.005029	0.006065	0.020537	0.004522	0.003286	0.12312	0.004839	0.003651
2.2525	0.022357	0.007491	0.005412	0.003299	0.009119	0.029244	0.004657	0.013443	0.004991	0.00597	0.021182	0.004479	0.003274	0.121102	0.004881	0.003671
2.253	0.02282	0.007611	0.005376	0.003279	0.009128	0.029312	0.004673	0.013336	0.004953	0.005877	0.021839	0.004437	0.003263	0.119101	0.004923	0.003692
2.2535	0.023291	0.007734	0.005341	0.003259	0.009137	0.029377	0.004689	0.013231	0.004916	0.005785	0.022507	0.004396	0.003251	0.117119	0.004967	0.003712
2.254	0.023768	0.007859	0.005307	0.00324	0.009145	0.02944	0.004707	0.013127	0.004879	0.005695	0.023186	0.004357	0.00324	0.115155	0.005011	0.003731
2.2545	0.024253	0.007987	0.005273	0.003221	0.009153	0.029499	0.004726	0.013024	0.004842	0.005606	0.023876	0.004318	0.003228	0.113211	0.005056	0.00375
2.255	0.024745	0.008117	0.005239	0.003203	0.00916	0.029556	0.004746	0.012923	0.004807	0.005519	0.024577	0.004279	0.003216	0.111287	0.005101	0.003769
2.2555	0.025244	0.008249	0.005206	0.003185	0.009167	0.029611	0.004767	0.012823	0.004771	0.005434	0.02529	0.004242	0.003205	0.109383	0.005148	0.003788
2.256	0.02575	0.008384	0.005173	0.003168	0.009174	0.029662	0.004789	0.012725	0.004736	0.00535	0.026014	0.004206	0.003194	0.1075	0.005195	0.003805
2.2565	0.026264	0.008521	0.00514	0.003151	0.00918	0.029712	0.004811	0.012628	0.004702	0.005268	0.026749	0.004171	0.003182	0.105638	0.005243	0.003823
2.257	0.026784	0.00866	0.005109	0.003135	0.009185	0.029758	0.004835	0.012532	0.004668	0.005187	0.027495	0.004136	0.003171	0.103797	0.005292	0.00384
2.2575	0.027311	0.008802	0.005077	0.003119	0.00919	0.029803	0.00486	0.012439	0.004635	0.005108	0.028252	0.004103	0.00316	0.101979	0.005342	0.003857
2.258	0.027845	0.008946	0.005046	0.003104	0.009194	0.029844	0.004885	0.012346	0.004602	0.00503	0.02902	0.00407	0.003149	0.100184	0.005393	0.003873
2.2585	0.028385	0.009092	0.005015	0.003089	0.009198	0.029884	0.004912	0.012256	0.00457	0.004954	0.029799	0.004039	0.003138	0.098412	0.005445	0.003889
2.259	0.028933	0.009241	0.004985	0.003074	0.009202	0.02992	0.00494	0.012167	0.004538	0.00488	0.03059	0.004008	0.003127	0.096663	0.005497	0.003905
2.2595	0.029486	0.009392	0.004955	0.00306	0.009205	0.029955	0.004968	0.012079	0.004507	0.004807	0.031391	0.003978	0.003116	0.094938	0.005551	0.00392
2.26	0.030047	0.009545	0.004926	0.003047	0.009207	0.029987	0.004998	0.011994	0.004476	0.004736	0.032203	0.003949	0.003106	0.093238	0.005606	0.003935
2.2605	0.030614	0.009701	0.004897	0.003034	0.009209	0.030018	0.005028	0.01191	0.004446	0.004666	0.033025	0.003921	0.003096	0.091561	0.005661	0.00395
2.261	0.031187	0.009859	0.004869	0.003021	0.009211	0.030046	0.00506	0.011827	0.004416	0.004598	0.033859	0.003894	0.003085	0.08991	0.005718	0.003965
2.2615	0.031767	0.010019	0.00484	0.003009	0.009211	0.030072	0.005092	0.011747	0.004387	0.004531	0.034703	0.003868	0.003075	0.088284	0.005775	0.003979
2.262	0.032352	0.010181	0.004813	0.002997	0.009212	0.030096	0.005125	0.011668	0.004358	0.004466	0.035557	0.003842	0.003066	0.086683	0.005833	0.003993
2.2625	0.032944	0.010345	0.004786	0.002986	0.009212	0.030118	0.00516	0.011591	0.00433	0.004402	0.036422	0.003818	0.003056	0.085108	0.005893	0.004006
2.263	0.033542	0.010512	0.004759	0.002976	0.009211	0.030138	0.005195	0.011515	0.004302	0.00434	0.037298	0.003794	0.003047	0.083558	0.005953	0.00402
2.2635	0.034145	0.01068	0.004733	0.002965	0.00921	0.030157	0.005231	0.011442	0.004275	0.004279	0.038183	0.003771	0.003038	0.082035	0.006014	0.004033
2.264	0.034754	0.010851	0.004707	0.002956	0.009208	0.030173	0.005268	0.01137	0.004249	0.00422	0.039078	0.003749	0.003029	0.080538	0.006077	0.004045
2.2645	0.035369	0.011024	0.004681	0.002947	0.009206	0.030189	0.005306	0.0113	0.004222	0.004162	0.039983	0.003728	0.003021	0.079068	0.00614	0.004058
2.265	0.035988	0.011199	0.004656	0.002938	0.009203	0.030202	0.005346	0.011232	0.004197	0.004105	0.040898	0.003708	0.003013	0.077624	0.006204	0.00407
2.2655	0.036613	0.011376	0.004632	0.00293	0.0092	0.030214	0.005386	0.011165	0.004172	0.00405	0.041822	0.003688	0.003005	0.076207	0.006269	0.004082
2.266	0.037243	0.011555	0.004608	0.002922	0.009196	0.030225	0.005426	0.011101	0.004147	0.003996	0.042755	0.00367	0.002997	0.074817	0.006335	0.004094
2.2665	0.037878	0.011735	0.004584	0.002915	0.009192	0.030233	0.005468	0.011038	0.004123	0.003943	0.043698	0.003652	0.00299	0.073454	0.006402	0.004106
2.267	0.038518	0.011918	0.004561	0.002908	0.009187	0.030241	0.005511	0.010977	0.0041	0.003892	0.044649	0.003635	0.002983	0.072118	0.00647	0.004117
2.2675	0.039161	0.012102	0.004539	0.002902	0.009181	0.030247	0.005555	0.010919	0.004077	0.003842	0.045609	0.003618	0.002976	0.07081	0.006539	0.004128
2.268	0.039809	0.012289	0.004517	0.002896	0.009175	0.030251	0.005599	0.010862	0.004055	0.003793	0.046578	0.003603	0.00297	0.069528	0.006609	0.004139
2.2685	0.040462	0.012477	0.004495	0.00289	0.009169	0.030254	0.005645	0.010807	0.004033	0.003746	0.047555	0.003588	0.002964	0.068274	0.00668	0.00415
2.269	0.041117	0.012667	0.004475	0.002886	0.009162	0.030256	0.005691	0.010755	0.004011	0.0037	0.048539	0.003574	0.002958	0.067048	0.006751	0.00416
2.2695	0.041777	0.012858	0.004454	0.002881	0.009154	0.030256	0.005738	0.010704	0.003991	0.003655	0.049531	0.00356	0.002953	0.065849	0.006824	0.004171
2.27	0.04244	0.013051	0.004435	0.002877	0.009146	0.030254	0.005786	0.010656	0.00397	0.003612	0.050531	0.003548	0.002948	0.064677	0.006898	0.004181
2.2705	0.043106	0.013246	0.004416	0.002874	0.009137	0.030252	0.005834	0.01061	0.003951	0.003569	0.051538	0.003536	0.002943	0.063533	0.006972	0.004191
2.271	0.043775	0.013442	0.004397	0.002871	0.009127	0.030248	0.005884	0.010566	0.003932	0.003528	0.052551	0.003525	0.002939	0.062417	0.007048	0.004201
2.2715	0.044446	0.01364	0.004379	0.002868	0.009117	0.030242	0.005934	0.010525	0.003913	0.003488	0.053571	0.003514	0.002935	0.061328	0.007124	0.004211
2.272	0.045121	0.013839	0.004362	0.002866	0.009107	0.030236	0.005985	0.010485	0.003895	0.003449	0.054598	0.003504	0.002932	0.060267	0.007201	0.00422
2.2725	0.045797	0.014039	0.004346	0.002865	0.009096	0.030228	0.006037	0.010449	0.003877	0.003411	0.05563	0.003495	0.002929	0.059233	0.00728	0.00423
2.273	0.046475	0.014241	0.00433	0.002864	0.009084	0.030218	0.006089	0.010414	0.003861	0.003374	0.056667	0.003487	0.002927	0.058227	0.007359	0.004239
2.2735	0.047156	0.014444	0.004315	0.002863	0.009072	0.030208	0.006142	0.010382	0.003844	0.003339	0.05771	0.00348	0.002925	0.057248	0.007439	0.004248
2.274	0.047837	0.014648	0.0043	0.002863	0.009059	0.030196	0.006196	0.010352	0.003828	0.003304	0.058757	0.003473	0.002923	0.056297	0.00752	0.004258
2.2745	0.04852	0.014853	0.004286	0.002863	0.009046	0.030183	0.00625	0.010325	0.003813	0.003271	0.059809	0.003466	0.002922	0.055373	0.007602	0.004267
2.275	0.049204	0.015059	0.004273	0.002864	0.009032	0.030169	0.006306	0.0103	0.003799	0.003238	0.060865	0.003461	0.002921	0.054477	0.007685	0.004276
2.2755	0.049888	0.015266	0.004261	0.002865	0.009018	0.030153	0.006362	0.010278	0.003785	0.003207	0.061925	0.003456	0.002921	0.053608	0.007768	0.004285
2.276	0.050573	0.015474	0.00425	0.002866	0.009003	0.030137	0.006418	0.010258	0.003771	0.003177	0.062988	0.003452	0.002921	0.052767	0.007853	0.004294
2.2765	0.051258	0.015683	0.004239	0.002868	0.008987	0.030119	0.006475	0.010241	0.003759	0.003148	0.064053	0.003449	0.002921	0.051953	0.007939	0.004303
2.277	0.051942	0.015893	0.004229	0.00287	0.008971	0.0301	0.006533	0.010226	0.003747	0.00312	0.065122	0.003446	0.002922	0.051166	0.008026	0.004312
2.2775	0.052626	0.016103	0.004221	0.002873	0.008955	0.03008	0.006592	0.010214	0.003735	0.003093	0.066192	0.003444	0.002924	0.050407	0.008113	0.004321
2.278	0.053309	0.016314	0.004212	0.002876	0.008938	0.030058	0.006651	0.010205	0.003725	0.003067	0.067263	0.003442	0.002925	0.049674	0.008202	0.00433
2.2785	0.053991	0.016526	0.004205	0.00288	0.00892	0.030036	0.006711	0.010198	0.003715	0.003042	0.068336	0.003441	0.002928	0.048969	0.008292	0.004339
2.279	0.054672	0.016737	0.004199	0.002884	0.008902	0.030012	0.006772	0.010194	0.003705	0.003018	0.069409	0.003441	0.00293	0.04829	0.008382	0.004348
2.2795	0.055351	0.01695	0.004193	0.002889	0.008883	0.029987	0.006833	0.010193	0.003697	0.002996	0.070483	0.003441	0.002934	0.047639	0.008474	0.004357
2.28	0.056029	0.017163	0.004189	0.002894	0.008864	0.029961	0.006894	0.010194	0.003689	0.002974	0.071557	0.003442	0.002937	0.047014	0.008567	0.004367
2.2805	0.056705	0.017376	0.004185	0.002899	0.008844	0.029934	0.006957	0.010198	0.003682	0.002953	0.07263	0.003444	0.002941	0.046415	0.008661	0.004376
2.281	0.057379	0.017589	0.004183	0.002905	0.008823	0.029906	0.00702	0.010205	0.003675	0.002933	0.073703	0.003446	0.002946	0.045843	0.008756	0.004385
2.2815	0.058051	0.017802	0.004181	0.002911	0.008803	0.029877	0.007083	0.010214	0.003669	0.002915	0.074775	0.003449	0.002951	0.045298	0.008852	0.004395
2.282	0.05872	0.018015	0.004181	0.002918	0.008781	0.029847	0.007147	0.010227	0.003664	0.002897	0.075845	0.003452	0.002956	0.044779	0.008948	0.004405
2.2825	0.059387	0.018229	0.004181	0.002925	0.008759	0.029817	0.007212	0.010242	0.00366	0.00288	0.076913	0.003456	0.002962	0.044286	0.009047	0.004415
2.283	0.060052	0.018442	0.004183	0.002932	0.008737	0.029785	0.007277	0.010259	0.003656	0.002865	0.077978	0.003461	0.002968	0.04382	0.009146	0.004425
2.2835	0.060713	0.018655	0.004185	0.00294	0.008714	0.029753	0.007343	0.01028	0.003653	0.00285	0.079041	0.003466	0.002975	0.043379	0.009246	0.004436
2.284	0.061372	0.018868	0.004189	0.002949	0.00869	0.02972	0.00741	0.010303	0.003651	0.002836	0.0801	0.003471	0.002982	0.042965	0.009347	0.004446
2.2845	0.062028	0.01908	0.004194	0.002958	0.008666	0.029686	0.007477	0.010329	0.003649	0.002824	0.081156	0.003478	0.002989	0.042576	0.009449	0.004457
2.285	0.062681	0.019292	0.0042	0.002967	0.008641	0.029651	0.007544	0.010357	0.003648	0.002812	0.082208	0.003484	0.002997	0.042213	0.009553	0.004469
2.2855	0.063331	0.019504	0.004207	0.002977	0.008616	0.029616	0.007612	0.010389	0.003648	0.002801	0.083255	0.003492	0.003005	0.041876	0.009657	0.00448
2.286	0.063978	0.019716	0.004215	0.002987	0.00859	0.029581	0.00768	0.010423	0.003649	0.002791	0.084298	0.003499	0.003014	0.041565	0.009762	0.004492
2.2865	0.064623	0.019926	0.004224	0.002998	0.008564	0.029545	0.007749	0.01046	0.003651	0.002782	0.085336	0.003508	0.003023	0.041279	0.009869	0.004504
2.287	0.065264	0.020137	0.004235	0.00301	0.008537	0.029509	0.007819	0.010499	0.003653	0.002774	0.086368	0.003516	0.003032	0.041019	0.009976	0.004517
2.2875	0.065901	0.020346	0.004247	0.003021	0.008509	0.029472	0.007889	0.010542	0.003656	0.002767	0.087394	0.003526	0.003042	0.040785	0.010085	0.00453
2.288	0.066536	0.020556	0.004259	0.003034	0.008481	0.029435	0.007959	0.010586	0.003659	0.002761	0.088415	0.003536	0.003052	0.040575	0.010194	0.004543
2.2885	0.067167	0.020764	0.004274	0.003047	0.008453	0.029397	0.00803	0.010634	0.003664	0.002756	0.089428	0.003546	0.003062	0.040391	0.010305	0.004557
2.289	0.067795	0.020971	0.004289	0.00306	0.008423	0.029359	0.008101	0.010684	0.003669	0.002752	0.090434	0.003557	0.003073	0.040233	0.010416	0.004571
2.2895	0.068419	0.021178	0.004306	0.003074	0.008393	0.029321	0.008172	0.010737	0.003675	0.002748	0.091433	0.003568	0.003084	0.040099	0.010528	0.004585
2.29	0.06904	0.021384	0.004324	0.003088	0.008363	0.029283	0.008244	0.010793	0.003682	0.002745	0.092425	0.00358	0.003096	0.03999	0.010641	0.0046
2.2905	0.069656	0.021589	0.004343	0.003103	0.008332	0.029244	0.008316	0.010851	0.003689	0.002744	0.093408	0.003593	0.003107	0.039907	0.010755	0.004616
2.291	0.070269	0.021793	0.004363	0.003118	0.0083	0.029206	0.008389	0.010911	0.003698	0.002743	0.094382	0.003606	0.00312	0.039848	0.01087	0.004631
2.2915	0.070877	0.021995	0.004385	0.003134	0.008267	0.029167	0.008461	0.010975	0.003706	0.002743	0.095347	0.003619	0.003133	0.039814	0.010986	0.004648
2.292	0.071481	0.022197	0.004408	0.00315	0.008234	0.029128	0.008534	0.011041	0.003716	0.002743	0.096302	0.003633	0.003146	0.039804	0.011102	0.004664
2.2925	0.07208	0.022397	0.004432	0.003167	0.0082	0.02909	0.008607	0.011109	0.003727	0.002745	0.097248	0.003648	0.003159	0.03982	0.011219	0.004681
2.293	0.072674	0.022596	0.004458	0.003185	0.008166	0.029051	0.00868	0.01118	0.003738	0.002747	0.098183	0.003663	0.003174	0.039859	0.011337	0.004699
2.2935	0.073263	0.022793	0.004485	0.003203	0.008131	0.029013	0.008753	0.011254	0.003749	0.00275	0.099107	0.003679	0.003188	0.039923	0.011455	0.004717
2.294	0.073847	0.022989	0.004513	0.003222	0.008095	0.028974	0.008827	0.01133	0.003762	0.002754	0.100019	0.003695	0.003203	0.040012	0.011574	0.004736
2.2945	0.074426	0.023183	0.004543	0.003241	0.008059	0.028936	0.0089	0.011409	0.003775	0.002759	0.10092	0.003712	0.003219	0.040125	0.011694	0.004755
2.295	0.075	0.023376	0.004574	0.00326	0.008022	0.028898	0.008973	0.01149	0.003789	0.002764	0.101809	0.003729	0.003235	0.040261	0.011814	0.004774
2.2955	0.075568	0.023567	0.004606	0.003281	0.007985	0.028861	0.009047	0.011574	0.003803	0.00277	0.102685	0.003747	0.003252	0.040422	0.011935	0.004794
2.296	0.07613	0.023755	0.00464	0.003302	0.007947	0.028824	0.00912	0.01166	0.003819	0.002777	0.103549	0.003766	0.003269	0.040607	0.012056	0.004814
2.2965	0.076686	0.023942	0.004675	0.003323	0.007909	0.028787	0.009194	0.011749	0.003834	0.002784	0.104399	0.003785	0.003287	0.040815	0.012177	0.004835
2.297	0.077235	0.024127	0.004711	0.003345	0.00787	0.028751	0.009267	0.011841	0.003851	0.002793	0.105237	0.003805	0.003305	0.041046	0.012299	0.004857
2.2975	0.077779	0.024309	0.004749	0.003368	0.007831	0.028715	0.009341	0.011935	0.003868	0.002801	0.106061	0.003825	0.003324	0.041301	0.012422	0.004878
2.298	0.078315	0.024489	0.004788	0.003391	0.007791	0.02868	0.009414	0.012031	0.003885	0.002811	0.106871	0.003846	0.003344	0.04158	0.012544	0.0049
2.2985	0.078845	0.024667	0.004828	0.003414	0.00775	0.028645	0.009487	0.01213	0.003904	0.002821	0.107668	0.003867	0.003364	0.041881	0.012667	0.004923
2.299	0.079367	0.024842	0.00487	0.003439	0.007709	0.028611	0.00956	0.012231	0.003922	0.002832	0.108451	0.003889	0.003385	0.042205	0.01279	0.004946
2.2995	0.079882	0.025014	0.004914	0.003463	0.007668	0.028579	0.009633	0.012335	0.003942	0.002844	0.10922	0.003912	0.003407	0.042552	0.012914	0.004969
2.3	0.08039	0.025184	0.004958	0.003489	0.007627	0.028547	0.009706	0.012441	0.003961	0.002856	0.109974	0.003936	0.003429	0.042922	0.013037	0.004993
2.3005	0.080889	0.025351	0.005005	0.003515	0.007585	0.028516	0.009778	0.012549	0.003982	0.002868	0.110715	0.00396	0.003452	0.043314	0.013161	0.005017
2.301	0.081381	0.025515	0.005052	0.003541	0.007543	0.028486	0.00985	0.01266	0.004003	0.002882	0.11144	0.003984	0.003476	0.043728	0.013284	0.005042
2.3015	0.081864	0.025675	0.005101	0.003568	0.0075	0.028458	0.009922	0.012774	0.004024	0.002896	0.112152	0.004009	0.0035	0.044164	0.013408	0.005066
2.302	0.082338	0.025833	0.005152	0.003596	0.007457	0.028431	0.009994	0.012889	0.004045	0.002911	0.112849	0.004035	0.003526	0.044622	0.013532	0.005092
2.3025	0.082803	0.025987	0.005203	0.003624	0.007414	0.028405	0.010065	0.013007	0.004068	0.002926	0.113532	0.004062	0.003552	0.045102	0.013656	0.005117
2.303	0.083259	0.026138	0.005257	0.003652	0.007371	0.028381	0.010137	0.013127	0.00409	0.002942	0.1142	0.004089	0.003579	0.045603	0.01378	0.005143
2.3035	0.083705	0.026285	0.005311	0.003681	0.007328	0.028358	0.010207	0.01325	0.004113	0.002958	0.114854	0.004117	0.003607	0.046125	0.013904	0.005169
2.304	0.084141	0.026428	0.005367	0.003711	0.007285	0.028337	0.010278	0.013374	0.004136	0.002976	0.115494	0.004145	0.003635	0.046669	0.014027	0.005195
2.3045	0.084566	0.026568	0.005425	0.003741	0.007242	0.028317	0.010347	0.013501	0.00416	0.002993	0.116119	0.004175	0.003665	0.047234	0.014151	0.005222
2.305	0.084981	0.026704	0.005484	0.003772	0.007198	0.028299	0.010417	0.01363	0.004184	0.003012	0.116729	0.004204	0.003695	0.047819	0.014274	0.005249
2.3055	0.085385	0.026835	0.005544	0.003803	0.007155	0.028283	0.010486	0.013761	0.004208	0.003031	0.117325	0.004235	0.003727	0.048425	0.014397	0.005276
2.306	0.085778	0.026963	0.005606	0.003835	0.007112	0.028269	0.010554	0.013894	0.004233	0.00305	0.117906	0.004266	0.003759	0.049051	0.01452	0.005303
2.3065	0.086158	0.027086	0.005669	0.003867	0.007069	0.028258	0.010622	0.014029	0.004258	0.00307	0.118472	0.004298	0.003793	0.049698	0.014642	0.005331
2.307	0.086527	0.027204	0.005733	0.0039	0.007026	0.028248	0.010689	0.014166	0.004283	0.003091	0.119023	0.00433	0.003827	0.050365	0.014764	0.005359
2.3075	0.086882	0.027319	0.005799	0.003934	0.006984	0.02824	0.010755	0.014305	0.004308	0.003112	0.119559	0.004363	0.003863	0.051052	0.014885	0.005387
2.308	0.087225	0.027428	0.005866	0.003967	0.006942	0.028235	0.010821	0.014446	0.004333	0.003134	0.120079	0.004397	0.003899	0.051759	0.015006	0.005415
2.3085	0.087554	0.027533	0.005935	0.004002	0.0069	0.028232	0.010886	0.014589	0.004359	0.003157	0.120585	0.004431	0.003937	0.052486	0.015127	0.005443
2.309	0.087869	0.027632	0.006005	0.004037	0.006859	0.028232	0.01095	0.014733	0.004384	0.00318	0.121075	0.004466	0.003976	0.053232	0.015246	0.005471
2.3095	0.088171	0.027727	0.006076	0.004072	0.006818	0.028234	0.011014	0.014879	0.00441	0.003203	0.12155	0.004502	0.004016	0.053997	0.015366	0.005499
2.31	0.088458	0.027817	0.006148	0.004108	0.006778	0.028239	0.011076	0.015027	0.004436	0.003227	0.12201	0.004538	0.004057	0.054782	0.015484	0.005528
2.3105	0.088731	0.027901	0.006222	0.004144	0.006738	0.028246	0.011138	0.015176	0.004462	0.003252	0.122456	0.004575	0.004099	0.055585	0.015602	0.005556
2.311	0.08899	0.02798	0.006297	0.004181	0.006699	0.028256	0.011199	0.015327	0.004489	0.003277	0.122886	0.004613	0.004143	0.056407	0.015719	0.005584
2.3115	0.089234	0.028053	0.006373	0.004218	0.006661	0.028269	0.011258	0.015479	0.004515	0.003303	0.123301	0.004652	0.004188	0.057248	0.015835	0.005613
2.312	0.089463	0.028121	0.006451	0.004256	0.006623	0.028285	0.011317	0.015632	0.004541	0.003329	0.123702	0.004691	0.004234	0.058106	0.01595	0.005641
2.3125	0.089677	0.028183	0.006529	0.004294	0.006586	0.028304	0.011375	0.015787	0.004567	0.003356	0.124087	0.00473	0.004281	0.058983	0.016064	0.005669
2.313	0.089876	0.02824	0.006609	0.004333	0.00655	0.028325	0.011432	0.015943	0.004594	0.003383	0.124458	0.004771	0.00433	0.059877	0.016177	0.005697
2.3135	0.090059	0.028291	0.00669	0.004373	0.006516	0.028349	0.011488	0.0161	0.00462	0.003411	0.124814	0.004812	0.00438	0.060788	0.01629	0.005725
2.314	0.090228	0.028337	0.006772	0.004412	0.006482	0.028377	0.011543	0.016258	0.004647	0.003439	0.125156	0.004854	0.004431	0.061717	0.016401	0.005753
2.3145	0.09038	0.028377	0.006855	0.004453	0.006449	0.028407	0.011597	0.016416	0.004673	0.003468	0.125484	0.004896	0.004484	0.062662	0.016512	0.005781
2.315	0.090518	0.028412	0.006939	0.004494	0.006417	0.02844	0.01165	0.016576	0.004699	0.003497	0.125799	0.004939	0.004538	0.063623	0.016621	0.005808
2.3155	0.09064	0.028441	0.007024	0.004535	0.006386	0.028476	0.011701	0.016737	0.004726	0.003526	0.1261	0.004982	0.004594	0.064601	0.016729	0.005836
2.316	0.090747	0.028465	0.00711	0.004577	0.006356	0.028515	0.011752	0.016898	0.004752	0.003556	0.126388	0.005027	0.00465	0.065594	0.016836	0.005863
2.3165	0.090839	0.028483	0.007197	0.004619	0.006328	0.028557	0.011802	0.017059	0.004778	0.003587	0.126663	0.005071	0.004709	0.066602	0.016942	0.00589
2.317	0.090916	0.028496	0.007286	0.004661	0.0063	0.028602	0.011851	0.017221	0.004804	0.003617	0.126927	0.005117	0.004769	0.067625	0.017047	0.005917
2.3175	0.090979	0.028505	0.007375	0.004705	0.006274	0.02865	0.011898	0.017384	0.00483	0.003649	0.127178	0.005163	0.00483	0.068663	0.017151	0.005943
2.318	0.091027	0.028508	0.007464	0.004748	0.00625	0.028701	0.011945	0.017546	0.004856	0.00368	0.127418	0.005209	0.004892	0.069714	0.017254	0.005969
2.3185	0.09106	0.028506	0.007555	0.004792	0.006226	0.028754	0.011991	0.017709	0.004882	0.003712	0.127647	0.005256	0.004957	0.070779	0.017356	0.005995
2.319	0.09108	0.0285	0.007646	0.004837	0.006204	0.028811	0.012035	0.017872	0.004908	0.003744	0.127865	0.005304	0.005022	0.071857	0.017456	0.006021
2.3195	0.091084	0.028489	0.007739	0.004881	0.006184	0.02887	0.012079	0.018035	0.004933	0.003777	0.128073	0.005352	0.005089	0.072948	0.017556	0.006047
2.32	0.091075	0.028474	0.007832	0.004927	0.006165	0.028932	0.012122	0.018197	0.004959	0.00381	0.128271	0.005401	0.005158	0.07405	0.017654	0.006072
2.3205	0.091051	0.028454	0.007925	0.004972	0.006147	0.028996	0.012163	0.01836	0.004985	0.003843	0.12846	0.00545	0.005228	0.075163	0.017751	0.006097
2.321	0.091013	0.028431	0.008019	0.005018	0.006131	0.029064	0.012204	0.018521	0.00501	0.003877	0.128638	0.005499	0.0053	0.076288	0.017847	0.006121
2.3215	0.090961	0.028404	0.008114	0.005065	0.006116	0.029134	0.012244	0.018683	0.005036	0.003911	0.128808	0.00555	0.005373	0.077423	0.017943	0.006145
2.322	0.090894	0.028373	0.008209	0.005112	0.006103	0.029207	0.012283	0.018843	0.005062	0.003945	0.128968	0.0056	0.005447	0.078567	0.018037	0.006169
2.3225	0.090814	0.028339	0.008305	0.005159	0.006092	0.029282	0.012321	0.019003	0.005087	0.00398	0.129119	0.005651	0.005524	0.07972	0.01813	0.006192
2.323	0.09072	0.028301	0.008401	0.005207	0.006082	0.02936	0.012358	0.019162	0.005113	0.004014	0.129262	0.005702	0.005601	0.080882	0.018222	0.006216
2.3235	0.090613	0.028261	0.008498	0.005254	0.006074	0.02944	0.012394	0.01932	0.005138	0.004049	0.129396	0.005753	0.00568	0.082052	0.018313	0.006238
2.324	0.090492	0.028217	0.008594	0.005303	0.006067	0.029523	0.012429	0.019476	0.005164	0.004084	0.129522	0.005805	0.005761	0.083228	0.018404	0.006261
2.3245	0.090358	0.028171	0.008691	0.005351	0.006063	0.029608	0.012463	0.019632	0.005189	0.004119	0.129639	0.005857	0.005843	0.084412	0.018493	0.006283
2.325	0.090212	0.028123	0.008789	0.0054	0.00606	0.029696	0.012496	0.019786	0.005215	0.004155	0.129748	0.00591	0.005927	0.085601	0.018581	0.006305
2.3255	0.090053	0.028072	0.008886	0.005449	0.006058	0.029786	0.012528	0.019938	0.005241	0.00419	0.129849	0.005962	0.006012	0.086795	0.018668	0.006326
2.326	0.089881	0.028019	0.008984	0.005498	0.006059	0.029878	0.012559	0.020089	0.005266	0.004226	0.129941	0.006015	0.006099	0.087993	0.018754	0.006347
2.3265	0.089698	0.027964	0.009081	0.005548	0.006061	0.029972	0.012589	0.020237	0.005292	0.004262	0.130024	0.006068	0.006187	0.089195	0.018839	0.006368
2.327	0.089503	0.027907	0.009179	0.005598	0.006065	0.030069	0.012619	0.020384	0.005317	0.004297	0.130099	0.006121	0.006277	0.090401	0.018923	0.006389
2.3275	0.089297	0.027849	0.009276	0.005648	0.006072	0.030168	0.012647	0.020529	0.005343	0.004333	0.130166	0.006174	0.006368	0.091608	0.019006	0.006409
2.328	0.089079	0.027789	0.009373	0.005699	0.00608	0.030269	0.012674	0.020671	0.005369	0.004369	0.130224	0.006228	0.00646	0.092818	0.019087	0.006428
2.3285	0.088851	0.027728	0.00947	0.005749	0.00609	0.030372	0.012701	0.020811	0.005395	0.004405	0.130274	0.006281	0.006555	0.094029	0.019168	0.006448
2.329	0.088612	0.027665	0.009567	0.0058	0.006101	0.030478	0.012726	0.020949	0.00542	0.00444	0.130314	0.006334	0.00665	0.095239	0.019247	0.006467
2.3295	0.088363	0.027602	0.009663	0.005851	0.006115	0.030586	0.012751	0.021084	0.005446	0.004476	0.130346	0.006388	0.006747	0.09645	0.019325	0.006486
2.33	0.088104	0.027539	0.009759	0.005902	0.006131	0.030695	0.012775	0.021216	0.005472	0.004511	0.130369	0.006441	0.006846	0.09766	0.019402	0.006504
2.3305	0.087835	0.027475	0.009855	0.005953	0.006149	0.030807	0.012797	0.021345	0.005498	0.004547	0.130382	0.006494	0.006945	0.098867	0.019477	0.006522
2.331	0.087558	0.027411	0.00995	0.006005	0.006169	0.030921	0.012819	0.02147	0.005524	0.004582	0.130385	0.006547	0.007047	0.100073	0.019552	0.006539
2.3315	0.087272	0.027347	0.010044	0.006056	0.006191	0.031037	0.01284	0.021593	0.00555	0.004617	0.130379	0.0066	0.00715	0.101275	0.019624	0.006556
2.332	0.086977	0.027283	0.010138	0.006108	0.006215	0.031155	0.01286	0.021712	0.005577	0.004652	0.130362	0.006653	0.007254	0.102473	0.019696	0.006573
2.3325	0.086675	0.02722	0.01023	0.00616	0.006241	0.031275	0.012879	0.021828	0.005603	0.004686	0.130336	0.006705	0.007359	0.103667	0.019766	0.006589
2.333	0.086366	0.027158	0.010322	0.006211	0.00627	0.031397	0.012898	0.021941	0.005629	0.004721	0.1303	0.006757	0.007466	0.104855	0.019835	0.006605
2.3335	0.086049	0.027097	0.010413	0.006263	0.0063	0.031521	0.012915	0.02205	0.005656	0.004755	0.130253	0.006809	0.007574	0.106037	0.019902	0.00662
2.334	0.085725	0.027036	0.010504	0.006315	0.006333	0.031647	0.012931	0.022155	0.005682	0.004788	0.130196	0.006861	0.007684	0.107212	0.019968	0.006635
2.3345	0.085395	0.026977	0.010592	0.006366	0.006367	0.031775	0.012947	0.022256	0.005709	0.004822	0.130129	0.006913	0.007795	0.108379	0.020033	0.006649
2.335	0.085059	0.02692	0.01068	0.006418	0.006404	0.031905	0.012962	0.022354	0.005736	0.004855	0.130052	0.006964	0.007907	0.109538	0.020096	0.006663
2.3355	0.084717	0.026865	0.010767	0.006469	0.006444	0.032037	0.012976	0.022448	0.005763	0.004888	0.129964	0.007014	0.008021	0.110687	0.020158	0.006676
2.336	0.084369	0.026811	0.010852	0.006521	0.006485	0.032171	0.012989	0.022537	0.00579	0.00492	0.129866	0.007064	0.008136	0.111826	0.020218	0.006688
2.3365	0.084017	0.026759	0.010936	0.006572	0.006529	0.032306	0.013001	0.022622	0.005817	0.004952	0.129758	0.007114	0.008252	0.112955	0.020277	0.0067
2.337	0.083659	0.02671	0.011018	0.006623	0.006575	0.032444	0.013012	0.022704	0.005845	0.004983	0.129639	0.007163	0.00837	0.114072	0.020335	0.006711
2.3375	0.083298	0.026664	0.011099	0.006673	0.006623	0.032582	0.013023	0.02278	0.005872	0.005014	0.129511	0.007212	0.008488	0.115178	0.020391	0.006722
2.338	0.082931	0.02662	0.011178	0.006724	0.006674	0.032723	0.013032	0.022852	0.0059	0.005045	0.129371	0.00726	0.008608	0.116271	0.020446	0.006732
2.3385	0.082561	0.026579	0.011255	0.006774	0.006727	0.032865	0.013041	0.02292	0.005928	0.005075	0.129221	0.007308	0.008729	0.117351	0.020499	0.006742
2.339	0.082188	0.026541	0.011331	0.006824	0.006782	0.033009	0.013049	0.022983	0.005956	0.005105	0.129061	0.007355	0.008851	0.118418	0.020551	0.006751
2.3395	0.081811	0.026507	0.011405	0.006874	0.00684	0.033155	0.013055	0.023042	0.005984	0.005134	0.12889	0.007401	0.008974	0.119472	0.020602	0.00676
2.34	0.081431	0.026476	0.011477	0.006923	0.0069	0.033302	0.013061	0.023096	0.006012	0.005162	0.128709	0.007447	0.009098	0.120511	0.020651	0.006768
2.3405	0.081049	0.026449	0.011548	0.006972	0.006963	0.03345	0.013066	0.023145	0.00604	0.00519	0.128517	0.007492	0.009224	0.121535	0.020699	0.006776
2.341	0.080665	0.026426	0.011617	0.007021	0.007028	0.033599	0.01307	0.02319	0.006068	0.005217	0.128316	0.007536	0.00935	0.122544	0.020746	0.006783
2.3415	0.080279	0.026408	0.011684	0.00707	0.007096	0.03375	0.013073	0.02323	0.006097	0.005244	0.128104	0.007579	0.009477	0.123537	0.020791	0.00679
2.342	0.079891	0.026394	0.011749	0.007118	0.007166	0.033902	0.013075	0.023266	0.006125	0.00527	0.127883	0.007622	0.009605	0.124515	0.020835	0.006796
2.3425	0.079502	0.026384	0.011813	0.007166	0.007239	0.034055	0.013076	0.023297	0.006154	0.005295	0.127652	0.007664	0.009734	0.125476	0.020878	0.006802
2.343	0.079112	0.026379	0.011875	0.007214	0.007314	0.034209	0.013076	0.023324	0.006183	0.005319	0.127412	0.007704	0.009863	0.126421	0.020919	0.006807
2.3435	0.078722	0.02638	0.011935	0.007261	0.007392	0.034364	0.013076	0.023346	0.006211	0.005343	0.127164	0.007745	0.009994	0.127348	0.02096	0.006812
2.344	0.078333	0.026385	0.011993	0.007308	0.007473	0.03452	0.013074	0.023364	0.00624	0.005367	0.126907	0.007784	0.010125	0.128258	0.020999	0.006817
2.3445	0.077943	0.026396	0.01205	0.007355	0.007556	0.034677	0.013072	0.023378	0.006269	0.005389	0.126642	0.007822	0.010257	0.12915	0.021038	0.006822
2.345	0.077554	0.026412	0.012105	0.007402	0.007642	0.034834	0.013069	0.023387	0.006298	0.005411	0.126369	0.007859	0.010389	0.130023	0.021075	0.006826
2.3455	0.077166	0.026434	0.012158	0.007449	0.007731	0.034992	0.013065	0.023393	0.006327	0.005433	0.126089	0.007896	0.010522	0.130879	0.021112	0.00683
2.346	0.076779	0.026462	0.01221	0.007495	0.007822	0.035151	0.013061	0.023395	0.006355	0.005454	0.125803	0.007931	0.010656	0.131715	0.021148	0.006834
2.3465	0.076394	0.026496	0.012261	0.007541	0.007917	0.035311	0.013055	0.023393	0.006384	0.005474	0.125511	0.007965	0.01079	0.132533	0.021183	0.006837
2.347	0.07601	0.026536	0.01231	0.007587	0.008014	0.03547	0.01305	0.023387	0.006413	0.005493	0.125212	0.007999	0.010924	0.133332	0.021217	0.006841
2.3475	0.075628	0.026582	0.012357	0.007633	0.008113	0.035631	0.013043	0.023378	0.006442	0.005512	0.124909	0.008031	0.011059	0.134112	0.021251	0.006844
2.348	0.075249	0.026634	0.012403	0.007679	0.008216	0.035791	0.013036	0.023366	0.006471	0.00553	0.124601	0.008063	0.011194	0.134873	0.021284	0.006847
2.3485	0.074872	0.026694	0.012448	0.007724	0.008321	0.035952	0.013028	0.02335	0.006499	0.005548	0.124288	0.008093	0.01133	0.135614	0.021317	0.006851
2.349	0.074498	0.026759	0.012491	0.00777	0.008429	0.036113	0.01302	0.023332	0.006528	0.005564	0.123972	0.008122	0.011466	0.136337	0.021349	0.006854
2.3495	0.074127	0.026832	0.012533	0.007815	0.00854	0.036274	0.013011	0.023312	0.006557	0.005581	0.123652	0.008151	0.011602	0.13704	0.02138	0.006857
2.35	0.073759	0.026912	0.012574	0.007859	0.008654	0.036435	0.013002	0.023289	0.006586	0.005596	0.12333	0.008178	0.011737	0.137724	0.021412	0.00686
2.3505	0.073396	0.027	0.012613	0.007904	0.008771	0.036597	0.012992	0.023263	0.006615	0.005611	0.123006	0.008205	0.011874	0.138389	0.021442	0.006864
2.351	0.073036	0.027095	0.012651	0.007949	0.00889	0.036758	0.012982	0.023236	0.006644	0.005626	0.12268	0.00823	0.01201	0.139035	0.021473	0.006867
2.3515	0.072682	0.027197	0.012688	0.007993	0.009012	0.03692	0.012971	0.023206	0.006672	0.00564	0.122353	0.008255	0.012145	0.139662	0.021503	0.00687
2.352	0.072332	0.027308	0.012724	0.008037	0.009137	0.037081	0.01296	0.023175	0.006701	0.005653	0.122026	0.008278	0.012281	0.14027	0.021534	0.006874
2.3525	0.071988	0.027427	0.012758	0.008081	0.009265	0.037242	0.012949	0.023142	0.006731	0.005666	0.121698	0.008301	0.012417	0.140859	0.021564	0.006878
2.353	0.071649	0.027554	0.012792	0.008124	0.009396	0.037403	0.012937	0.023108	0.00676	0.005678	0.121372	0.008323	0.012552	0.141429	0.021594	0.006882
2.3535	0.071316	0.027689	0.012824	0.008168	0.00953	0.037563	0.012926	0.023072	0.006789	0.00569	0.121046	0.008344	0.012687	0.14198	0.021625	0.006886
2.354	0.070989	0.027834	0.012855	0.008211	0.009666	0.037723	0.012914	0.023035	0.006819	0.005701	0.120722	0.008364	0.012822	0.142512	0.021655	0.00689
2.3545	0.070669	0.027987	0.012886	0.008253	0.009805	0.037882	0.012902	0.022997	0.006848	0.005712	0.120401	0.008383	0.012956	0.143026	0.021686	0.006895
2.355	0.070355	0.028149	0.012915	0.008296	0.009947	0.038041	0.01289	0.022958	0.006878	0.005722	0.120082	0.008401	0.01309	0.143521	0.021717	0.0069
2.3555	0.070048	0.028321	0.012943	0.008338	0.010092	0.038199	0.012879	0.022919	0.006908	0.005733	0.119767	0.008418	0.013223	0.143997	0.021748	0.006905
2.356	0.069749	0.028502	0.01297	0.00838	0.010239	0.038355	0.012867	0.022878	0.006938	0.005742	0.119456	0.008434	0.013355	0.144456	0.02178	0.00691
2.3565	0.069456	0.028692	0.012996	0.008422	0.010389	0.038511	0.012856	0.022837	0.006968	0.005752	0.119149	0.00845	0.013487	0.144897	0.021813	0.006916
2.357	0.069171	0.028893	0.013021	0.008463	0.010542	0.038665	0.012845	0.022795	0.006999	0.005761	0.118847	0.008464	0.013618	0.14532	0.021846	0.006922
2.3575	0.068893	0.029103	0.013045	0.008504	0.010698	0.038817	0.012834	0.022753	0.00703	0.00577	0.11855	0.008478	0.013748	0.145725	0.021879	0.006928
2.358	0.068623	0.029323	0.013068	0.008545	0.010856	0.038968	0.012824	0.022711	0.007061	0.005778	0.118258	0.00849	0.013876	0.146113	0.021913	0.006935
2.3585	0.06836	0.029554	0.013091	0.008585	0.011017	0.039117	0.012814	0.022668	0.007093	0.005787	0.117973	0.008502	0.014004	0.146485	0.021948	0.006942
2.359	0.068106	0.029795	0.013112	0.008625	0.01118	0.039265	0.012804	0.022626	0.007124	0.005795	0.117694	0.008513	0.014131	0.146839	0.021983	0.00695
2.3595	0.067859	0.030046	0.013132	0.008664	0.011347	0.03941	0.012795	0.022583	0.007156	0.005803	0.117422	0.008523	0.014256	0.147178	0.022019	0.006958
2.36	0.067621	0.030308	0.013152	0.008703	0.011516	0.039552	0.012787	0.02254	0.007188	0.00581	0.117157	0.008532	0.01438	0.147501	0.022055	0.006967
2.3605	0.06739	0.030581	0.01317	0.008741	0.011687	0.039693	0.012779	0.022497	0.007221	0.005818	0.1169	0.00854	0.014502	0.147809	0.022092	0.006976
2.361	0.067168	0.030865	0.013188	0.008778	0.011861	0.03983	0.012772	0.022454	0.007254	0.005825	0.11665	0.008547	0.014622	0.148101	0.02213	0.006985
2.3615	0.066954	0.031161	0.013205	0.008816	0.012038	0.039965	0.012765	0.022411	0.007287	0.005832	0.116409	0.008553	0.014741	0.148379	0.022168	0.006995
2.362	0.066748	0.031467	0.01322	0.008852	0.012217	0.040097	0.012759	0.022369	0.00732	0.005839	0.116175	0.008559	0.014858	0.148642	0.022207	0.007006
2.3625	0.06655	0.031785	0.013235	0.008888	0.012399	0.040225	0.012753	0.022326	0.007354	0.005846	0.115951	0.008563	0.014974	0.148891	0.022247	0.007018
2.363	0.066361	0.032115	0.013249	0.008923	0.012583	0.04035	0.012748	0.022284	0.007388	0.005853	0.115735	0.008567	0.015086	0.149125	0.022287	0.00703
2.3635	0.066179	0.032456	0.013262	0.008957	0.01277	0.040471	0.012744	0.022242	0.007422	0.00586	0.115528	0.008569	0.015197	0.149346	0.022328	0.007042
2.364	0.066006	0.032809	0.013275	0.008991	0.012959	0.040589	0.012741	0.022201	0.007457	0.005867	0.11533	0.008571	0.015306	0.149552	0.022369	0.007056
2.3645	0.065841	0.033174	0.013286	0.009024	0.013151	0.040702	0.012738	0.02216	0.007491	0.005873	0.115141	0.008571	0.015411	0.149745	0.022411	0.00707
2.365	0.065685	0.033551	0.013297	0.009056	0.013345	0.040811	0.012736	0.022119	0.007526	0.00588	0.114962	0.008571	0.015515	0.149924	0.022454	0.007085
2.3655	0.065537	0.03394	0.013306	0.009087	0.013542	0.040915	0.012735	0.022079	0.007562	0.005887	0.114792	0.008569	0.015615	0.150089	0.022497	0.007101
2.366	0.065397	0.034342	0.013315	0.009117	0.013741	0.041015	0.012734	0.02204	0.007597	0.005893	0.114633	0.008567	0.015713	0.150241	0.02254	0.007118
2.3665	0.065266	0.034755	0.013323	0.009146	0.013943	0.041109	0.012735	0.022001	0.007633	0.0059	0.114483	0.008564	0.015807	0.150379	0.022584	0.007137
2.367	0.065143	0.035182	0.01333	0.009174	0.014147	0.041198	0.012736	0.021963	0.00767	0.005907	0.114343	0.008559	0.015899	0.150504	0.022629	0.007156
2.3675	0.06503	0.035621	0.013336	0.009202	0.014354	0.041282	0.012738	0.021926	0.007706	0.005913	0.114213	0.008554	0.015987	0.150616	0.022674	0.007176
2.368	0.064925	0.036072	0.013341	0.009228	0.014563	0.04136	0.012741	0.021889	0.007743	0.00592	0.114093	0.008547	0.016071	0.150715	0.022719	0.007198
2.3685	0.064828	0.036537	0.013346	0.009253	0.014775	0.041433	0.012745	0.021854	0.007779	0.005927	0.113984	0.00854	0.016152	0.150802	0.022764	0.007221
2.369	0.064741	0.037014	0.01335	0.009277	0.014989	0.041499	0.012751	0.02182	0.007817	0.005934	0.113885	0.008531	0.01623	0.150875	0.02281	0.007245
2.3695	0.064662	0.037504	0.013352	0.0093	0.015206	0.041559	0.012757	0.021787	0.007854	0.005941	0.113796	0.008521	0.016303	0.150937	0.022856	0.007271
2.37	0.064593	0.038008	0.013354	0.009323	0.015425	0.041613	0.012764	0.021755	0.007891	0.005948	0.113718	0.008511	0.016373	0.150986	0.022902	0.007298
2.3705	0.064532	0.038524	0.013356	0.009344	0.015647	0.041661	0.012772	0.021724	0.007929	0.005955	0.11365	0.008499	0.016438	0.151024	0.022949	0.007326
2.371	0.064481	0.039055	0.013356	0.009364	0.015871	0.041701	0.012781	0.021695	0.007967	0.005963	0.113593	0.008486	0.016499	0.151051	0.022995	0.007357
2.3715	0.064438	0.039598	0.013356	0.009383	0.016098	0.041735	0.012791	0.021668	0.008005	0.00597	0.113546	0.008472	0.016556	0.151067	0.023042	0.007388
2.372	0.064405	0.040155	0.013355	0.009401	0.016327	0.041761	0.012803	0.021641	0.008044	0.005978	0.113509	0.008457	0.016608	0.151073	0.023089	0.007422
2.3725	0.064381	0.040726	0.013354	0.009419	0.016558	0.041781	0.012815	0.021617	0.008082	0.005986	0.113483	0.008442	0.016656	0.151071	0.023136	0.007458
2.373	0.064365	0.041311	0.013352	0.009435	0.016793	0.041793	0.012829	0.021595	0.008121	0.005994	0.113467	0.008425	0.016699	0.151062	0.023182	0.007495
2.3735	0.064359	0.04191	0.013349	0.009451	0.017029	0.041798	0.012843	0.021574	0.00816	0.006002	0.113462	0.008407	0.016738	0.151046	0.023229	0.007534
2.374	0.064362	0.042522	0.013346	0.009465	0.017268	0.041796	0.012859	0.021555	0.008199	0.00601	0.113467	0.008389	0.016771	0.151024	0.023275	0.007575
2.3745	0.064374	0.043149	0.013343	0.009479	0.01751	0.041787	0.012876	0.021538	0.008238	0.006019	0.113482	0.008369	0.0168	0.150998	0.023322	0.007619
2.375	0.064395	0.043791	0.013339	0.009492	0.017754	0.041771	0.012893	0.021524	0.008278	0.006028	0.113508	0.008349	0.016824	0.150969	0.023368	0.007664
2.3755	0.064426	0.044446	0.013335	0.009505	0.018001	0.041748	0.012912	0.021511	0.008318	0.006038	0.113545	0.008328	0.016843	0.150938	0.023415	0.007711
2.376	0.064465	0.045116	0.013331	0.009516	0.018249	0.041719	0.012932	0.021501	0.008358	0.006047	0.113593	0.008306	0.016857	0.150906	0.023461	0.007761
2.3765	0.064514	0.045801	0.013326	0.009527	0.018501	0.041682	0.012953	0.021493	0.008398	0.006057	0.113652	0.008283	0.016866	0.150874	0.023507	0.007813
2.377	0.064572	0.0465	0.013322	0.009537	0.018755	0.041639	0.012975	0.021487	0.008438	0.006068	0.113722	0.008259	0.01687	0.150844	0.023554	0.007867
2.3775	0.06464	0.047215	0.013317	0.009547	0.019011	0.04159	0.012998	0.021484	0.008479	0.006078	0.113804	0.008235	0.016869	0.150816	0.0236	0.007923
2.378	0.064716	0.047943	0.013312	0.009556	0.019269	0.041535	0.013022	0.021483	0.00852	0.006089	0.113897	0.00821	0.016863	0.150793	0.023646	0.007982
2.3785	0.064803	0.048687	0.013307	0.009564	0.01953	0.041473	0.013046	0.021485	0.008561	0.006101	0.114001	0.008185	0.016851	0.150774	0.023692	0.008044
2.379	0.064898	0.049446	0.013303	0.009572	0.019793	0.041406	0.013072	0.021489	0.008602	0.006113	0.114118	0.008159	0.016835	0.150762	0.023738	0.008107
2.3795	0.065004	0.05022	0.013298	0.00958	0.020059	0.041334	0.013099	0.021496	0.008643	0.006125	0.114247	0.008133	0.016814	0.150757	0.023783	0.008173
2.38	0.06512	0.051009	0.013294	0.009587	0.020327	0.041256	0.013126	0.021505	0.008685	0.006138	0.114388	0.008106	0.016788	0.15076	0.023829	0.008242
2.3805	0.065245	0.051812	0.01329	0.009594	0.020597	0.041173	0.013155	0.021517	0.008727	0.006151	0.114542	0.008079	0.016757	0.150773	0.023874	0.008314
2.381	0.065381	0.052632	0.013286	0.0096	0.020869	0.041085	0.013184	0.021532	0.008768	0.006165	0.114709	0.008051	0.016722	0.150797	0.02392	0.008387
2.3815	0.065528	0.053466	0.013282	0.009607	0.021144	0.040993	0.013215	0.021549	0.008811	0.006179	0.11489	0.008023	0.016681	0.150832	0.023965	0.008464
2.382	0.065686	0.054315	0.013279	0.009613	0.02142	0.040897	0.013246	0.021569	0.008853	0.006193	0.115084	0.007995	0.016637	0.15088	0.02401	0.008543
2.3825	0.065854	0.05518	0.013276	0.009618	0.021699	0.040797	0.013278	0.021592	0.008895	0.006209	0.115293	0.007967	0.016588	0.150941	0.024055	0.008625
2.383	0.066034	0.056059	0.013274	0.009624	0.021979	0.040693	0.013311	0.021617	0.008937	0.006224	0.115516	0.007939	0.016534	0.151017	0.0241	0.00871
2.3835	0.066225	0.056954	0.013273	0.00963	0.022262	0.040586	0.013345	0.021645	0.00898	0.00624	0.115754	0.00791	0.016476	0.151109	0.024146	0.008797
2.384	0.066427	0.057864	0.013271	0.009635	0.022547	0.040476	0.013379	0.021676	0.009023	0.006257	0.116006	0.007882	0.016414	0.151218	0.024191	0.008887
2.3845	0.066641	0.058789	0.013271	0.009641	0.022833	0.040363	0.013415	0.021709	0.009065	0.006274	0.116273	0.007853	0.016348	0.151344	0.024236	0.00898
2.385	0.066866	0.059729	0.013271	0.009647	0.023122	0.040248	0.013451	0.021745	0.009108	0.006292	0.116556	0.007825	0.016278	0.151489	0.024282	0.009075
2.3855	0.067104	0.060684	0.013272	0.009652	0.023412	0.04013	0.013488	0.021784	0.009151	0.006311	0.116854	0.007796	0.016205	0.151653	0.024328	0.009174
2.386	0.067353	0.061654	0.013274	0.009658	0.023704	0.040011	0.013526	0.021825	0.009194	0.00633	0.117168	0.007768	0.016127	0.151838	0.024374	0.009275
2.3865	0.067614	0.062639	0.013276	0.009664	0.023998	0.03989	0.013565	0.021869	0.009237	0.006349	0.117497	0.00774	0.016046	0.152043	0.024421	0.009379
2.387	0.067886	0.063639	0.013279	0.00967	0.024293	0.039768	0.013605	0.021915	0.00928	0.006369	0.117842	0.007712	0.015962	0.15227	0.024468	0.009486
2.3875	0.068171	0.064653	0.013283	0.009676	0.024591	0.039645	0.013645	0.021964	0.009323	0.00639	0.118202	0.007685	0.015874	0.152521	0.024515	0.009596
2.388	0.068467	0.065683	0.013288	0.009682	0.02489	0.039521	0.013686	0.022016	0.009366	0.006411	0.118578	0.007657	0.015784	0.152794	0.024563	0.009709
2.3885	0.068775	0.066727	0.013293	0.009688	0.025191	0.039397	0.013728	0.02207	0.009409	0.006434	0.11897	0.00763	0.01569	0.153091	0.024612	0.009824
2.389	0.069095	0.067785	0.013299	0.009695	0.025494	0.039272	0.013771	0.022126	0.009452	0.006456	0.119378	0.007604	0.015594	0.153413	0.024661	0.009943
2.3895	0.069427	0.068858	0.013307	0.009702	0.025798	0.039148	0.013815	0.022185	0.009495	0.006479	0.119802	0.007578	0.015495	0.153761	0.024711	0.010064
2.39	0.069771	0.069946	0.013315	0.009709	0.026105	0.039024	0.013859	0.022247	0.009538	0.006503	0.120242	0.007552	0.015393	0.154134	0.024761	0.010189
2.3905	0.070126	0.071048	0.013324	0.009716	0.026413	0.0389	0.013905	0.022311	0.009582	0.006528	0.120699	0.007527	0.015289	0.154533	0.024813	0.010316
2.391	0.070493	0.072163	0.013333	0.009724	0.026724	0.038777	0.013951	0.022378	0.009625	0.006553	0.121172	0.007502	0.015182	0.15496	0.024865	0.010446
2.3915	0.070873	0.073293	0.013344	0.009732	0.027036	0.038655	0.013997	0.022447	0.009668	0.006579	0.121661	0.007477	0.015073	0.155415	0.024919	0.010579
2.392	0.071264	0.074437	0.013356	0.00974	0.02735	0.038534	0.014045	0.022518	0.009711	0.006606	0.122167	0.007454	0.014962	0.155897	0.024973	0.010715
2.3925	0.071667	0.075594	0.013368	0.009748	0.027666	0.038414	0.014093	0.022593	0.009754	0.006633	0.12269	0.00743	0.014849	0.156409	0.025029	0.010854
2.393	0.072083	0.076765	0.013382	0.009757	0.027985	0.038296	0.014142	0.022669	0.009797	0.00666	0.12323	0.007408	0.014735	0.156951	0.025086	0.010996
2.3935	0.072511	0.077949	0.013396	0.009767	0.028305	0.03818	0.014192	0.022748	0.009841	0.006689	0.123786	0.007385	0.014618	0.157522	0.025144	0.011141
2.394	0.072951	0.079146	0.013412	0.009777	0.028628	0.038066	0.014243	0.02283	0.009884	0.006718	0.12436	0.007364	0.0145	0.158124	0.025204	0.011289
2.3945	0.073404	0.080356	0.013428	0.009787	0.028953	0.037954	0.014294	0.022914	0.009927	0.006747	0.124951	0.007343	0.01438	0.158757	0.025265	0.011439
2.395	0.073869	0.081578	0.013445	0.009798	0.02928	0.037845	0.014346	0.023001	0.00997	0.006778	0.125559	0.007323	0.014259	0.159422	0.025328	0.011593
2.3955	0.074347	0.082813	0.013463	0.009809	0.02961	0.037738	0.014399	0.02309	0.010013	0.006809	0.126184	0.007304	0.014137	0.160118	0.025392	0.01175
2.396	0.074838	0.08406	0.013482	0.009821	0.029943	0.037634	0.014452	0.023182	0.010056	0.00684	0.126826	0.007285	0.014013	0.160846	0.025459	0.011909
2.3965	0.075342	0.085319	0.013503	0.009833	0.030278	0.037534	0.014507	0.023277	0.010099	0.006872	0.127486	0.007267	0.013888	0.161606	0.025528	0.012071
2.397	0.07586	0.08659	0.013524	0.009845	0.030616	0.037437	0.014562	0.023375	0.010143	0.006905	0.128163	0.00725	0.013763	0.1624	0.025598	0.012236
2.3975	0.07639	0.087872	0.013546	0.009859	0.030957	0.037343	0.014618	0.023475	0.010186	0.006938	0.128858	0.007233	0.013636	0.163227	0.025671	0.012404
2.398	0.076935	0.089165	0.013569	0.009872	0.031301	0.037254	0.014674	0.023578	0.01023	0.006972	0.129571	0.007217	0.013508	0.164088	0.025747	0.012575
2.3985	0.077493	0.090469	0.013593	0.009887	0.031647	0.037168	0.014732	0.023684	0.010274	0.007006	0.130301	0.007203	0.01338	0.164983	0.025825	0.012749
2.399	0.078065	0.091784	0.013618	0.009902	0.031997	0.037087	0.01479	0.023792	0.010318	0.007041	0.131049	0.007189	0.013251	0.165913	0.025906	0.012926
2.3995	0.078651	0.093109	0.013644	0.009917	0.03235	0.037011	0.014849	0.023903	0.010362	0.007077	0.131814	0.007176	0.013122	0.166877	0.025989	0.013105
2.4	0.079251	0.094443	0.013671	0.009933	0.032705	0.03694	0.014908	0.024018	0.010406	0.007113	0.132597	0.007163	0.012992	0.167877	0.026076	0.013288
2.4005	0.079866	0.095788	0.013699	0.00995	0.033065	0.036874	0.014969	0.024135	0.01045	0.007149	0.133398	0.007152	0.012861	0.168913	0.026166	0.013473
2.401	0.080495	0.097142	0.013728	0.009967	0.033427	0.036813	0.01503	0.024254	0.010495	0.007186	0.134216	0.007142	0.012731	0.169984	0.026259	0.013662
2.4015	0.081139	0.098504	0.013758	0.009985	0.033792	0.036759	0.015092	0.024377	0.01054	0.007224	0.135053	0.007132	0.0126	0.171092	0.026356	0.013853
2.402	0.081797	0.099876	0.013789	0.010004	0.034161	0.03671	0.015154	0.024502	0.010585	0.007262	0.135907	0.007124	0.012469	0.172237	0.026456	0.014048
2.4025	0.082471	0.101256	0.01382	0.010023	0.034533	0.036667	0.015218	0.024631	0.01063	0.007301	0.136779	0.007116	0.012338	0.173419	0.02656	0.014245
2.403	0.083159	0.102643	0.013853	0.010044	0.034909	0.036631	0.015282	0.024762	0.010676	0.00734	0.137668	0.007109	0.012207	0.174637	0.026668	0.014445
2.4035	0.083862	0.104039	0.013887	0.010064	0.035288	0.036602	0.015347	0.024896	0.010721	0.00738	0.138575	0.007104	0.012076	0.175893	0.02678	0.014648
2.404	0.08458	0.105441	0.013922	0.010086	0.03567	0.036579	0.015413	0.025033	0.010767	0.00742	0.139499	0.007099	0.011946	0.177186	0.026896	0.014855
2.4045	0.085314	0.10685	0.013958	0.010108	0.036056	0.036563	0.01548	0.025173	0.010813	0.00746	0.140441	0.007095	0.011816	0.178516	0.027016	0.015064
2.405	0.086062	0.108266	0.013994	0.010132	0.036445	0.036555	0.015548	0.025316	0.01086	0.007502	0.1414	0.007092	0.011686	0.179884	0.027141	0.015276
2.4055	0.086826	0.109687	0.014032	0.010156	0.036838	0.036554	0.015616	0.025462	0.010906	0.007543	0.142375	0.007091	0.011556	0.181289	0.02727	0.015491
2.406	0.087606	0.111113	0.014071	0.01018	0.037234	0.036562	0.015685	0.025611	0.010953	0.007585	0.143367	0.00709	0.011427	0.182731	0.027405	0.015709
2.4065	0.088401	0.112545	0.01411	0.010206	0.037633	0.036577	0.015755	0.025763	0.011	0.007628	0.144375	0.00709	0.011299	0.18421	0.027543	0.015931
2.407	0.089212	0.11398	0.014151	0.010232	0.038036	0.0366	0.015826	0.025917	0.011048	0.007671	0.1454	0.007091	0.011171	0.185726	0.027687	0.016155
2.4075	0.090038	0.11542	0.014192	0.01026	0.038443	0.036632	0.015898	0.026074	0.011096	0.007715	0.146439	0.007093	0.011044	0.187278	0.027836	0.016382
2.408	0.09088	0.116863	0.014235	0.010288	0.038853	0.036673	0.015971	0.026234	0.011144	0.007759	0.147494	0.007097	0.010918	0.188867	0.02799	0.016612
2.4085	0.091739	0.118309	0.014278	0.010317	0.039267	0.036723	0.016044	0.026398	0.011193	0.007803	0.148564	0.007101	0.010793	0.190492	0.02815	0.016845
2.409	0.092613	0.119758	0.014323	0.010346	0.039684	0.036782	0.016118	0.026563	0.011243	0.007848	0.149648	0.007106	0.010668	0.192153	0.028315	0.017081
2.4095	0.093503	0.121209	0.014368	0.010377	0.040104	0.036851	0.016193	0.026732	0.011293	0.007894	0.150746	0.007112	0.010545	0.193849	0.028486	0.017319
2.41	0.09441	0.122662	0.014415	0.010409	0.040529	0.036929	0.016269	0.026904	0.011344	0.00794	0.151858	0.007119	0.010422	0.19558	0.028663	0.017561
2.4105	0.095333	0.124116	0.014462	0.010441	0.040957	0.037017	0.016346	0.027079	0.011395	0.007986	0.152983	0.007128	0.010301	0.197345	0.028845	0.017806
2.411	0.096272	0.125572	0.014511	0.010474	0.041388	0.037115	0.016423	0.027257	0.011448	0.008033	0.154121	0.007137	0.010181	0.199145	0.029034	0.018054
2.4115	0.097228	0.127028	0.01456	0.010508	0.041823	0.037223	0.016501	0.027438	0.011501	0.00808	0.155271	0.007147	0.010062	0.200977	0.029229	0.018304
2.412	0.098199	0.128485	0.014611	0.010543	0.042262	0.037341	0.01658	0.027621	0.011555	0.008128	0.156433	0.007158	0.009944	0.202843	0.029431	0.018557
2.4125	0.099187	0.129941	0.014663	0.010579	0.042704	0.03747	0.016659	0.027808	0.01161	0.008177	0.157607	0.00717	0.009828	0.20474	0.029638	0.018814
2.413	0.100192	0.131397	0.014715	0.010615	0.04315	0.037609	0.016739	0.027998	0.011667	0.008226	0.158791	0.007183	0.009713	0.206669	0.029853	0.019073
2.4135	0.101212	0.132852	0.014769	0.010652	0.0436	0.037759	0.01682	0.028191	0.011724	0.008276	0.159987	0.007197	0.009599	0.208629	0.030074	0.019335
2.414	0.102248	0.134305	0.014824	0.01069	0.044053	0.03792	0.016901	0.028387	0.011782	0.008326	0.161192	0.007212	0.009487	0.210619	0.030303	0.0196
2.4145	0.1033	0.135757	0.01488	0.010729	0.04451	0.038092	0.016983	0.028586	0.011842	0.008376	0.162407	0.007228	0.009376	0.212639	0.030538	0.019867
2.415	0.104368	0.137207	0.014937	0.010768	0.04497	0.038276	0.017065	0.028788	0.011902	0.008427	0.16363	0.007245	0.009267	0.214687	0.030781	0.020138
2.4155	0.105451	0.138655	0.014995	0.010809	0.045433	0.03847	0.017148	0.028993	0.011964	0.008479	0.164862	0.007263	0.009159	0.216763	0.031032	0.020411
2.416	0.10655	0.140101	0.015054	0.010849	0.0459	0.038677	0.017232	0.029201	0.012028	0.008531	0.166101	0.007281	0.009053	0.218866	0.031289	0.020688
2.4165	0.107664	0.141544	0.015114	0.010891	0.046371	0.038894	0.017316	0.029412	0.012092	0.008584	0.167348	0.007301	0.008949	0.220995	0.031555	0.020967
2.417	0.108793	0.142984	0.015176	0.010933	0.046844	0.039124	0.017401	0.029626	0.012159	0.008638	0.1686	0.007321	0.008846	0.223149	0.031828	0.021249
2.4175	0.109938	0.144421	0.015238	0.010976	0.047321	0.039366	0.017486	0.029842	0.012226	0.008691	0.169859	0.007342	0.008745	0.225328	0.032109	0.021534
2.418	0.111096	0.145854	0.015302	0.011019	0.047802	0.039619	0.017571	0.030062	0.012295	0.008746	0.171123	0.007364	0.008646	0.22753	0.032399	0.021821
2.4185	0.11227	0.147284	0.015367	0.011063	0.048285	0.039885	0.017657	0.030284	0.012366	0.008801	0.172391	0.007386	0.008549	0.229755	0.032696	0.022112
2.419	0.113458	0.148709	0.015433	0.011107	0.048773	0.040162	0.017743	0.030509	0.012439	0.008857	0.173664	0.00741	0.008453	0.232002	0.033002	0.022406
2.4195	0.11466	0.150129	0.0155	0.011152	0.049263	0.040452	0.01783	0.030737	0.012513	0.008913	0.174939	0.007434	0.008359	0.234269	0.033316	0.022702
2.42	0.115876	0.151543	0.015568	0.011197	0.049758	0.040754	0.017917	0.030967	0.012589	0.008969	0.176216	0.007459	0.008267	0.236558	0.033638	0.023002
2.4205	0.117105	0.152953	0.015637	0.011242	0.050256	0.041069	0.018004	0.0312	0.012667	0.009027	0.177496	0.007484	0.008177	0.238866	0.033969	0.023305
2.421	0.118348	0.154356	0.015707	0.011288	0.050757	0.041396	0.018092	0.031435	0.012747	0.009085	0.178776	0.00751	0.008089	0.241193	0.034308	0.023611
2.4215	0.119605	0.155752	0.015778	0.011335	0.051262	0.041736	0.018179	0.031673	0.012829	0.009143	0.180055	0.007537	0.008002	0.243538	0.034656	0.02392
2.422	0.120874	0.157142	0.015851	0.011382	0.051771	0.042088	0.018267	0.031914	0.012912	0.009202	0.181334	0.007564	0.007918	0.245901	0.035013	0.024233
2.4225	0.122155	0.158525	0.015924	0.011429	0.052283	0.042453	0.018355	0.032157	0.012998	0.009261	0.182611	0.007592	0.007835	0.248282	0.035378	0.024549
2.423	0.123448	0.1599	0.015998	0.011476	0.0528	0.042831	0.018443	0.032402	0.013086	0.009321	0.183885	0.00762	0.007754	0.250679	0.035753	0.024868
2.4235	0.124753	0.161268	0.016074	0.011524	0.053319	0.043222	0.018531	0.032649	0.013175	0.009382	0.185154	0.007649	0.007675	0.253091	0.036136	0.025191
2.424	0.126069	0.162627	0.01615	0.011572	0.053842	0.043626	0.018619	0.032899	0.013267	0.009443	0.186419	0.007678	0.007598	0.255519	0.036528	0.025518
2.4245	0.127396	0.163978	0.016227	0.011621	0.054369	0.044044	0.018706	0.033151	0.013361	0.009504	0.187678	0.007708	0.007523	0.257961	0.036928	0.025848
2.425	0.128733	0.165321	0.016305	0.01167	0.054899	0.044474	0.018793	0.033405	0.013457	0.009567	0.188929	0.007738	0.00745	0.260415	0.037338	0.026181
2.4255	0.130079	0.166655	0.016385	0.01172	0.055433	0.044918	0.01888	0.033661	0.013555	0.009629	0.190171	0.007769	0.007379	0.262883	0.037757	0.026519
2.426	0.131435	0.16798	0.016465	0.01177	0.05597	0.045375	0.018967	0.033918	0.013656	0.009693	0.191404	0.0078	0.00731	0.265362	0.038184	0.02686
2.4265	0.132799	0.169296	0.016546	0.01182	0.056511	0.045845	0.019053	0.034178	0.013758	0.009756	0.192626	0.007831	0.007242	0.267853	0.038621	0.027204
2.427	0.13417	0.170604	0.016629	0.011871	0.057055	0.046329	0.019139	0.034439	0.013863	0.009821	0.193836	0.007863	0.007177	0.270355	0.039066	0.027553
2.4275	0.13555	0.171902	0.016712	0.011922	0.057603	0.046825	0.019224	0.034702	0.01397	0.009886	0.195032	0.007896	0.007114	0.272868	0.039521	0.027905
2.428	0.136935	0.173192	0.016797	0.011974	0.058153	0.047336	0.019309	0.034966	0.01408	0.009951	0.196213	0.007929	0.007052	0.275391	0.039984	0.028261
2.4285	0.138327	0.174472	0.016883	0.012027	0.058707	0.047859	0.019393	0.035232	0.014192	0.010018	0.197378	0.007962	0.006993	0.277926	0.040456	0.028621
2.429	0.139725	0.175744	0.01697	0.01208	0.059264	0.048396	0.019476	0.035499	0.014306	0.010084	0.198526	0.007996	0.006936	0.280471	0.040936	0.028985
2.4295	0.141126	0.177006	0.017059	0.012133	0.059824	0.048946	0.019559	0.035767	0.014422	0.010152	0.199655	0.008031	0.00688	0.283027	0.041426	0.029353
2.43	0.142532	0.178261	0.017148	0.012188	0.060387	0.04951	0.019641	0.036038	0.014541	0.01022	0.200763	0.008066	0.006827	0.285594	0.041924	0.029725
2.4305	0.143942	0.179507	0.01724	0.012242	0.060953	0.050086	0.019723	0.036309	0.014662	0.010288	0.20185	0.008101	0.006775	0.288171	0.042431	0.0301
2.431	0.145353	0.180745	0.017332	0.012298	0.061522	0.050676	0.019804	0.036582	0.014785	0.010357	0.202914	0.008137	0.006726	0.290759	0.042946	0.03048
2.4315	0.146767	0.181975	0.017427	0.012353	0.062094	0.051279	0.019884	0.036857	0.014911	0.010426	0.203953	0.008174	0.006678	0.293358	0.043469	0.030863
2.432	0.148181	0.183198	0.017523	0.01241	0.062669	0.051895	0.019963	0.037133	0.015039	0.010496	0.204966	0.008211	0.006633	0.295968	0.044	0.031251
2.4325	0.149596	0.184414	0.01762	0.012467	0.063247	0.052524	0.020042	0.037411	0.015169	0.010566	0.205952	0.008249	0.006589	0.298589	0.04454	0.031642
2.433	0.151009	0.185623	0.01772	0.012525	0.063827	0.053166	0.02012	0.037691	0.015302	0.010637	0.206909	0.008288	0.006548	0.301221	0.045087	0.032037
2.4335	0.152421	0.186825	0.017821	0.012583	0.06441	0.053821	0.020197	0.037972	0.015438	0.010709	0.207835	0.008327	0.006508	0.303864	0.045643	0.032437
2.434	0.153831	0.18802	0.017924	0.012642	0.064995	0.054489	0.020273	0.038256	0.015576	0.01078	0.208729	0.008367	0.006471	0.306518	0.046206	0.03284
2.4345	0.155236	0.189208	0.018029	0.012702	0.065582	0.055169	0.020349	0.038541	0.015716	0.010853	0.20959	0.008408	0.006435	0.309184	0.046776	0.033246
2.435	0.156637	0.19039	0.018136	0.012763	0.066172	0.055862	0.020424	0.038827	0.015859	0.010926	0.210417	0.00845	0.006401	0.311861	0.047354	0.033657
2.4355	0.158031	0.191565	0.018245	0.012825	0.066764	0.056568	0.020498	0.039116	0.016004	0.010999	0.211207	0.008493	0.006369	0.314549	0.047939	0.034072
2.436	0.159419	0.192733	0.018356	0.012887	0.067357	0.057286	0.020572	0.039407	0.016152	0.011072	0.211961	0.008537	0.006339	0.317248	0.048532	0.034491
2.4365	0.160799	0.193894	0.018469	0.012951	0.067953	0.058016	0.020645	0.039699	0.016302	0.011147	0.212677	0.008581	0.006312	0.319958	0.049131	0.034914
2.437	0.162169	0.195047	0.018585	0.013015	0.06855	0.058759	0.020717	0.039994	0.016455	0.011221	0.213354	0.008627	0.006285	0.322679	0.049737	0.035341
2.4375	0.163528	0.196193	0.018702	0.01308	0.069149	0.059514	0.020788	0.04029	0.01661	0.011296	0.21399	0.008674	0.006261	0.325409	0.05035	0.035772
2.438	0.164875	0.197332	0.018822	0.013146	0.069749	0.060281	0.020859	0.040588	0.016768	0.011371	0.214586	0.008722	0.006239	0.32815	0.050969	0.036207
2.4385	0.166209	0.198462	0.018944	0.013213	0.070351	0.06106	0.020929	0.040888	0.016928	0.011447	0.215138	0.008771	0.006218	0.3309	0.051594	0.036646
2.439	0.167529	0.199584	0.019068	0.013282	0.070954	0.061851	0.020999	0.041189	0.01709	0.011523	0.215648	0.008821	0.0062	0.333659	0.052226	0.037089
2.4395	0.168833	0.200698	0.019194	0.013351	0.071558	0.062653	0.021068	0.041493	0.017256	0.011599	0.216113	0.008873	0.006183	0.336427	0.052863	0.037536
2.44	0.170119	0.201802	0.019323	0.013421	0.072163	0.063467	0.021136	0.041798	0.017423	0.011676	0.216533	0.008926	0.006168	0.339205	0.053507	0.037987
2.4405	0.171387	0.202898	0.019454	0.013492	0.072768	0.064291	0.021204	0.042105	0.017593	0.011753	0.216906	0.00898	0.006154	0.341991	0.054156	0.038443
2.441	0.172635	0.203983	0.019587	0.013565	0.073374	0.065127	0.021272	0.042414	0.017765	0.01183	0.217232	0.009036	0.006143	0.344785	0.05481	0.038902
2.4415	0.173862	0.205057	0.019723	0.013638	0.07398	0.065973	0.021339	0.042725	0.01794	0.011907	0.217511	0.009093	0.006133	0.347589	0.05547	0.039366
2.442	0.175067	0.206121	0.019861	0.013712	0.074587	0.06683	0.021406	0.043038	0.018116	0.011985	0.21774	0.009151	0.006125	0.3504	0.056135	0.039833
2.4425	0.176247	0.207173	0.020001	0.013788	0.075193	0.067697	0.021472	0.043352	0.018295	0.012063	0.217919	0.009211	0.006119	0.353219	0.056805	0.040305
2.443	0.177403	0.208213	0.020144	0.013865	0.0758	0.068573	0.021538	0.043669	0.018477	0.012141	0.218048	0.009273	0.006114	0.356045	0.05748	0.040781
2.4435	0.178532	0.20924	0.02029	0.013942	0.076407	0.069459	0.021604	0.043987	0.01866	0.012219	0.218125	0.009336	0.006112	0.358878	0.058159	0.041261
2.444	0.179633	0.210254	0.020437	0.014021	0.077013	0.070355	0.021669	0.044307	0.018845	0.012297	0.218149	0.009401	0.006111	0.361718	0.058843	0.041744
2.4445	0.180705	0.211253	0.020587	0.014101	0.077619	0.07126	0.021734	0.044629	0.019033	0.012375	0.218121	0.009468	0.006111	0.364564	0.05953	0.042232
2.445	0.181746	0.212237	0.02074	0.014182	0.078225	0.072173	0.021799	0.044953	0.019222	0.012453	0.218038	0.009537	0.006114	0.367416	0.060222	0.042724
2.4455	0.182755	0.213206	0.020895	0.014264	0.078831	0.073094	0.021864	0.045278	0.019413	0.012531	0.2179	0.009607	0.006118	0.370274	0.060918	0.04322
2.446	0.183732	0.214158	0.021052	0.014348	0.079436	0.074024	0.021929	0.045605	0.019607	0.012608	0.217708	0.009679	0.006124	0.373137	0.061617	0.04372
2.4465	0.184674	0.215093	0.021212	0.014432	0.08004	0.074961	0.021993	0.045934	0.019802	0.012686	0.21746	0.009752	0.006131	0.376005	0.062319	0.044223
2.447	0.185581	0.216011	0.021374	0.014517	0.080643	0.075905	0.022057	0.046265	0.019998	0.012764	0.217158	0.009828	0.00614	0.378878	0.063025	0.044731
2.4475	0.186451	0.21691	0.021539	0.014604	0.081246	0.076856	0.022122	0.046597	0.020197	0.012841	0.216801	0.009906	0.006151	0.381757	0.063733	0.045242
2.448	0.187285	0.217789	0.021706	0.014692	0.081848	0.077814	0.022186	0.04693	0.020397	0.012918	0.216389	0.009985	0.006163	0.384641	0.064444	0.045757
2.4485	0.18808	0.218648	0.021875	0.01478	0.082449	0.078777	0.02225	0.047265	0.020599	0.012995	0.215923	0.010067	0.006177	0.387531	0.065157	0.046276
2.449	0.188837	0.219487	0.022047	0.01487	0.08305	0.079746	0.022314	0.047601	0.020802	0.013072	0.215404	0.010151	0.006192	0.390428	0.065873	0.046798
2.4495	0.189554	0.220305	0.022221	0.014961	0.08365	0.08072	0.022378	0.047938	0.021006	0.013149	0.214831	0.010236	0.006209	0.39333	0.066591	0.047324
2.45	0.190231	0.221102	0.022397	0.015053	0.084249	0.081699	0.022442	0.048276	0.021212	0.013225	0.214206	0.010324	0.006228	0.39624	0.06731	0.047854
2.4505	0.190867	0.221877	0.022576	0.015145	0.084848	0.082682	0.022506	0.048615	0.021419	0.0133	0.213529	0.010413	0.006248	0.399158	0.068031	0.048387
2.451	0.191461	0.222631	0.022756	0.015239	0.085447	0.083669	0.022569	0.048956	0.021628	0.013376	0.212801	0.010505	0.006269	0.402083	0.068754	0.048924
2.4515	0.192013	0.223362	0.022939	0.015335	0.086044	0.084658	0.022633	0.049297	0.021837	0.013451	0.212024	0.010599	0.006292	0.405018	0.069477	0.049464
2.452	0.192523	0.22407	0.023125	0.015431	0.086642	0.08565	0.022697	0.04964	0.022048	0.013525	0.211198	0.010695	0.006317	0.407962	0.070202	0.050007
2.4525	0.192989	0.224754	0.023312	0.015528	0.087238	0.086645	0.022761	0.049983	0.022259	0.013599	0.210324	0.010794	0.006343	0.410917	0.070926	0.050554
2.453	0.193413	0.225416	0.023502	0.015626	0.087834	0.08764	0.022824	0.050327	0.022472	0.013672	0.209403	0.010894	0.00637	0.413882	0.071651	0.051104
2.4535	0.193793	0.226053	0.023693	0.015726	0.088429	0.088636	0.022888	0.050672	0.022685	0.013745	0.208436	0.010997	0.0064	0.416858	0.072376	0.051656
2.454	0.19413	0.226665	0.023887	0.015826	0.089023	0.089632	0.022952	0.051017	0.022899	0.013816	0.207425	0.011101	0.00643	0.419846	0.073101	0.052212
2.4545	0.194425	0.227253	0.024082	0.015927	0.089615	0.090628	0.023016	0.051363	0.023113	0.013887	0.206369	0.011208	0.006462	0.422845	0.073825	0.05277
2.455	0.194678	0.227815	0.02428	0.01603	0.090207	0.091623	0.02308	0.05171	0.023329	0.013958	0.20527	0.011317	0.006496	0.425856	0.074548	0.053331
2.4555	0.194889	0.228352	0.024479	0.016133	0.090797	0.092616	0.023144	0.052057	0.023544	0.014027	0.20413	0.011428	0.006531	0.42888	0.07527	0.053894
2.456	0.195059	0.228862	0.02468	0.016238	0.091386	0.093607	0.023209	0.052405	0.023761	0.014096	0.202948	0.011542	0.006567	0.431915	0.07599	0.054459
2.4565	0.195189	0.229347	0.024883	0.016343	0.091973	0.094595	0.023274	0.052753	0.023977	0.014164	0.201727	0.011657	0.006605	0.434962	0.076708	0.055026
2.457	0.195279	0.229806	0.025087	0.016449	0.092559	0.09558	0.023339	0.053101	0.024194	0.014231	0.200468	0.011775	0.006645	0.438021	0.077424	0.055595
2.4575	0.195329	0.230239	0.025293	0.016557	0.093143	0.096561	0.023404	0.053449	0.024411	0.014297	0.199172	0.011895	0.006685	0.441091	0.078137	0.056167
2.458	0.195341	0.230646	0.025501	0.016665	0.093727	0.097539	0.023471	0.053798	0.024627	0.014362	0.19784	0.012017	0.006728	0.444172	0.078848	0.056739
2.4585	0.195314	0.231026	0.02571	0.016774	0.094309	0.098512	0.023537	0.054146	0.024844	0.014427	0.196474	0.012141	0.006771	0.447264	0.079556	0.057314
2.459	0.19525	0.231379	0.02592	0.016884	0.094889	0.09948	0.023604	0.054495	0.02506	0.01449	0.195075	0.012268	0.006817	0.450366	0.080261	0.05789
2.4595	0.195148	0.231706	0.026131	0.016995	0.095469	0.100443	0.023672	0.054843	0.025276	0.014553	0.193644	0.012396	0.006863	0.453477	0.080963	0.058467
2.46	0.195008	0.232006	0.026344	0.017107	0.096048	0.1014	0.02374	0.05519	0.025491	0.014614	0.192183	0.012527	0.006911	0.456598	0.081663	0.059045
2.4605	0.194832	0.232279	0.026557	0.017219	0.096625	0.102351	0.023809	0.055537	0.025706	0.014675	0.190692	0.01266	0.00696	0.459728	0.082358	0.059624
2.461	0.19462	0.232524	0.026772	0.017333	0.097202	0.103295	0.023879	0.055883	0.02592	0.014734	0.189174	0.012796	0.007011	0.462866	0.083051	0.060204
2.4615	0.194371	0.232741	0.026988	0.017446	0.097777	0.104232	0.023949	0.056227	0.026133	0.014792	0.187629	0.012933	0.007063	0.466011	0.083739	0.060784
2.462	0.194088	0.23293	0.027204	0.017561	0.098351	0.105161	0.02402	0.056571	0.026346	0.014849	0.18606	0.013073	0.007116	0.469163	0.084425	0.061365
2.4625	0.193769	0.233091	0.027421	0.017676	0.098925	0.106083	0.024091	0.056913	0.026557	0.014905	0.184468	0.013215	0.007171	0.472319	0.085106	0.061946
2.463	0.193416	0.233223	0.027639	0.017791	0.099497	0.106996	0.024164	0.057254	0.026767	0.01496	0.182854	0.013359	0.007227	0.47548	0.085783	0.062527
2.4635	0.19303	0.233326	0.027857	0.017907	0.100068	0.1079	0.024237	0.057593	0.026976	0.015013	0.18122	0.013505	0.007284	0.478643	0.086456	0.063109
2.464	0.19261	0.2334	0.028076	0.018024	0.100637	0.108796	0.024311	0.057929	0.027184	0.015065	0.179567	0.013653	0.007342	0.481808	0.087125	0.06369
2.4645	0.192159	0.233444	0.028295	0.018141	0.101206	0.109683	0.024386	0.058264	0.02739	0.015116	0.177896	0.013804	0.007402	0.484972	0.08779	0.064271
2.465	0.191675	0.233459	0.028515	0.018258	0.101772	0.110561	0.024461	0.058596	0.027594	0.015166	0.176209	0.013956	0.007463	0.488135	0.08845	0.064851
2.4655	0.191161	0.233444	0.028734	0.018375	0.102337	0.11143	0.024537	0.058925	0.027797	0.015214	0.174507	0.014111	0.007525	0.491294	0.089106	0.065432
2.466	0.190617	0.2334	0.028954	0.018493	0.102901	0.11229	0.024615	0.059252	0.027998	0.015261	0.172791	0.014268	0.007588	0.494447	0.089759	0.066011
2.4665	0.190043	0.233326	0.029174	0.018611	0.103463	0.11314	0.024693	0.059576	0.028198	0.015307	0.171063	0.014426	0.007652	0.497593	0.090407	0.06659
2.467	0.18944	0.233225	0.029394	0.018729	0.104023	0.113982	0.024771	0.059896	0.028395	0.015351	0.169322	0.014587	0.007718	0.500729	0.091051	0.067168
2.4675	0.188809	0.233095	0.029614	0.018847	0.104581	0.114814	0.024851	0.060214	0.02859	0.015394	0.167572	0.01475	0.007785	0.503855	0.091692	0.067744
2.468	0.188151	0.232937	0.029834	0.018965	0.105138	0.115637	0.024931	0.060528	0.028783	0.015436	0.165812	0.014915	0.007852	0.506969	0.09233	0.06832
2.4685	0.187467	0.232751	0.030053	0.019083	0.105692	0.116451	0.025013	0.060839	0.028973	0.015476	0.164043	0.015082	0.007921	0.510069	0.092965	0.068894
2.469	0.186757	0.232539	0.030273	0.019201	0.106245	0.117255	0.025095	0.061146	0.029161	0.015515	0.162267	0.01525	0.007991	0.513152	0.093596	0.069467
2.4695	0.186022	0.232298	0.030492	0.019318	0.106795	0.118051	0.025178	0.061449	0.029347	0.015553	0.160485	0.015421	0.008062	0.516218	0.094225	0.070037
2.47	0.185262	0.232031	0.03071	0.019436	0.107343	0.118836	0.025262	0.061748	0.029531	0.01559	0.158697	0.015594	0.008134	0.519265	0.094851	0.070606
2.4705	0.184479	0.231737	0.030928	0.019553	0.107888	0.119613	0.025347	0.062044	0.029712	0.015625	0.156904	0.015768	0.008206	0.52229	0.095475	0.071173
2.471	0.183672	0.231416	0.031146	0.019669	0.108431	0.120381	0.025433	0.062335	0.029891	0.015659	0.155107	0.015945	0.00828	0.52529	0.096096	0.071738
2.4715	0.182842	0.231067	0.031363	0.019786	0.108972	0.121141	0.02552	0.062622	0.030067	0.015692	0.153308	0.016123	0.008355	0.528264	0.096715	0.0723
2.472	0.18199	0.230692	0.03158	0.019901	0.109509	0.121892	0.025608	0.062904	0.030241	0.015723	0.151506	0.016303	0.00843	0.53121	0.097332	0.072859
2.4725	0.181117	0.230289	0.031796	0.020017	0.110044	0.122635	0.025697	0.063181	0.030412	0.015753	0.149703	0.016485	0.008506	0.534124	0.097947	0.073416
2.473	0.180222	0.229859	0.032012	0.020132	0.110575	0.12337	0.025787	0.063454	0.030581	0.015783	0.1479	0.016669	0.008584	0.537003	0.098561	0.073971
2.4735	0.179307	0.229402	0.032227	0.020246	0.111104	0.124097	0.025878	0.063721	0.030748	0.015811	0.146096	0.016855	0.008661	0.539846	0.099173	0.074522
2.474	0.178371	0.228917	0.032441	0.020359	0.111629	0.124816	0.025969	0.063983	0.030912	0.015837	0.144293	0.017043	0.00874	0.542651	0.099784	0.075071
2.4745	0.177415	0.228406	0.032655	0.020473	0.11215	0.125528	0.026062	0.06424	0.031073	0.015863	0.142492	0.017233	0.00882	0.545414	0.100395	0.075616
2.475	0.17644	0.227867	0.032868	0.020585	0.112668	0.126233	0.026155	0.064491	0.031232	0.015888	0.140692	0.017425	0.0089	0.548135	0.101004	0.076158
2.4755	0.175446	0.227301	0.033081	0.020697	0.113181	0.126931	0.026249	0.064736	0.031389	0.015912	0.138895	0.017619	0.00898	0.550811	0.101613	0.076696
2.476	0.174435	0.226709	0.033293	0.020808	0.11369	0.127623	0.026345	0.064976	0.031543	0.015935	0.137102	0.017815	0.009062	0.553442	0.102222	0.077231
2.4765	0.173407	0.22609	0.033504	0.020919	0.114194	0.128307	0.02644	0.06521	0.031694	0.015956	0.135312	0.018013	0.009143	0.556026	0.102831	0.077762
2.477	0.172362	0.225446	0.033714	0.021029	0.114693	0.128986	0.026537	0.065438	0.031843	0.015977	0.133526	0.018214	0.009226	0.558562	0.10344	0.078289
2.4775	0.171302	0.224776	0.033924	0.021138	0.115187	0.129658	0.026634	0.065661	0.031989	0.015997	0.131745	0.018416	0.009308	0.561049	0.104049	0.078812
2.478	0.170227	0.224082	0.034133	0.021247	0.115674	0.130324	0.026732	0.065877	0.032133	0.016016	0.12997	0.018621	0.009392	0.563486	0.104658	0.07933
2.4785	0.169138	0.223363	0.034341	0.021354	0.116155	0.130984	0.02683	0.066088	0.032274	0.016034	0.128202	0.018829	0.009475	0.565872	0.105267	0.079844
2.479	0.168037	0.222621	0.034549	0.021462	0.11663	0.131639	0.026929	0.066293	0.032412	0.016052	0.126439	0.019038	0.009559	0.568207	0.105877	0.080353
2.4795	0.166924	0.221855	0.034755	0.021568	0.117097	0.132287	0.027029	0.066492	0.032547	0.016068	0.124684	0.019251	0.009643	0.57049	0.106487	0.080857
2.48	0.165799	0.221066	0.034961	0.021674	0.117556	0.13293	0.027128	0.066686	0.03268	0.016084	0.122937	0.019465	0.009728	0.57272	0.107098	0.081355
2.4805	0.164664	0.220254	0.035167	0.021779	0.118008	0.133567	0.027228	0.066874	0.03281	0.016099	0.121198	0.019683	0.009812	0.574898	0.107709	0.081848
2.481	0.163519	0.21942	0.035371	0.021884	0.11845	0.134199	0.027329	0.067057	0.032937	0.016113	0.119467	0.019903	0.009897	0.577021	0.10832	0.082335
2.4815	0.162365	0.218564	0.035575	0.021988	0.118884	0.134825	0.027429	0.067234	0.033061	0.016126	0.117745	0.020125	0.009982	0.579089	0.108932	0.082815
2.482	0.161203	0.217688	0.035777	0.022091	0.119308	0.135445	0.02753	0.067406	0.033183	0.016139	0.116033	0.020351	0.010067	0.581101	0.109545	0.083289
2.4825	0.160033	0.216791	0.035979	0.022194	0.119721	0.136059	0.02763	0.067573	0.033301	0.01615	0.11433	0.020579	0.010151	0.583057	0.110158	0.083755
2.483	0.158857	0.215874	0.03618	0.022296	0.120123	0.136668	0.027731	0.067735	0.033416	0.016161	0.112637	0.02081	0.010236	0.584955	0.110771	0.084215
2.4835	0.157674	0.214938	0.036381	0.022397	0.120514	0.137271	0.027831	0.067893	0.033528	0.016171	0.110955	0.021044	0.01032	0.586796	0.111384	0.084667
2.484	0.156486	0.213984	0.03658	0.022498	0.120893	0.137867	0.027931	0.068045	0.033637	0.01618	0.109284	0.021281	0.010404	0.588578	0.111998	0.08511
2.4845	0.155293	0.213013	0.036778	0.022598	0.121259	0.138458	0.028031	0.068194	0.033743	0.016189	0.107624	0.02152	0.010488	0.5903	0.112612	0.085546
2.485	0.154097	0.212024	0.036976	0.022697	0.121612	0.139043	0.02813	0.068337	0.033846	0.016196	0.105976	0.021763	0.010572	0.591962	0.113225	0.085973
2.4855	0.152897	0.211019	0.037172	0.022796	0.121952	0.139622	0.028229	0.068477	0.033945	0.016203	0.10434	0.022008	0.010655	0.593564	0.113839	0.086392
2.486	0.151696	0.209997	0.037367	0.022894	0.122277	0.140195	0.028327	0.068613	0.034041	0.016209	0.102715	0.022257	0.010737	0.595105	0.114452	0.086801
2.4865	0.150493	0.20896	0.037561	0.022991	0.122587	0.140762	0.028424	0.068744	0.034134	0.016214	0.101103	0.022508	0.010819	0.596584	0.115065	0.087201
2.487	0.149289	0.207908	0.037754	0.023087	0.122883	0.141323	0.02852	0.068872	0.034223	0.016218	0.099504	0.022763	0.0109	0.598002	0.115678	0.087591
2.4875	0.148085	0.206841	0.037946	0.023183	0.123163	0.141877	0.028615	0.068997	0.034309	0.016222	0.097918	0.023021	0.010981	0.59936	0.11629	0.087972
2.488	0.146882	0.205759	0.038136	0.023277	0.123427	0.142425	0.028708	0.069117	0.034391	0.016225	0.096346	0.023282	0.01106	0.600656	0.116902	0.088343
2.4885	0.14568	0.204664	0.038325	0.023371	0.123676	0.142966	0.028801	0.069235	0.034469	0.016227	0.094788	0.023546	0.011139	0.601892	0.117513	0.088704
2.489	0.14448	0.203555	0.038513	0.023463	0.123907	0.1435	0.028891	0.069349	0.034544	0.016228	0.093245	0.023813	0.011217	0.603066	0.118123	0.089055
2.4895	0.143282	0.202432	0.038699	0.023555	0.124121	0.144026	0.02898	0.06946	0.034615	0.016228	0.091716	0.024084	0.011294	0.604179	0.118732	0.089396
2.49	0.142087	0.201297	0.038883	0.023645	0.124317	0.144544	0.029068	0.069567	0.034682	0.016228	0.090204	0.024358	0.011369	0.60523	0.11934	0.089727
2.4905	0.140895	0.200149	0.039065	0.023735	0.124495	0.145055	0.029153	0.069672	0.034745	0.016226	0.088707	0.024635	0.011444	0.606218	0.119947	0.090048
2.491	0.139707	0.198988	0.039246	0.023823	0.124654	0.145557	0.029236	0.069773	0.034805	0.016224	0.087227	0.024916	0.011517	0.607144	0.120553	0.090359
2.4915	0.138523	0.197814	0.039426	0.02391	0.124793	0.14605	0.029317	0.069871	0.034861	0.016221	0.085764	0.025201	0.011588	0.608007	0.121157	0.090659
2.492	0.137344	0.196629	0.039603	0.023996	0.124912	0.146533	0.029396	0.069967	0.034913	0.016217	0.084318	0.025489	0.011659	0.608807	0.12176	0.090949
2.4925	0.136169	0.195432	0.039778	0.024081	0.12501	0.147007	0.029472	0.07006	0.034961	0.016212	0.08289	0.02578	0.011727	0.609544	0.122361	0.091229
2.493	0.134999	0.194223	0.039952	0.024165	0.125087	0.147471	0.029546	0.070149	0.035006	0.016206	0.08148	0.026076	0.011794	0.610217	0.12296	0.091497
2.4935	0.133835	0.193003	0.040123	0.024247	0.125141	0.147924	0.029616	0.070236	0.035046	0.016199	0.080088	0.026374	0.01186	0.610828	0.123557	0.091755
2.494	0.132677	0.191773	0.040293	0.024327	0.125172	0.148365	0.029684	0.07032	0.035083	0.016192	0.078715	0.026677	0.011923	0.611375	0.124153	0.092002
2.4945	0.131524	0.190532	0.04046	0.024406	0.125179	0.148795	0.029749	0.070401	0.035115	0.016183	0.07736	0.026984	0.011985	0.611859	0.124745	0.092239
2.495	0.130376	0.18928	0.040625	0.024484	0.125163	0.149213	0.029811	0.070479	0.035144	0.016174	0.076025	0.027294	0.012045	0.61228	0.125336	0.092464
2.4955	0.129235	0.188019	0.040787	0.02456	0.125121	0.149618	0.029869	0.070554	0.035168	0.016164	0.07471	0.027608	0.012102	0.612637	0.125924	0.092677
2.496	0.1281	0.186748	0.040947	0.024635	0.125054	0.150009	0.029923	0.070626	0.035189	0.016153	0.073415	0.027926	0.012158	0.612931	0.126509	0.09288
2.4965	0.126971	0.185468	0.041105	0.024707	0.124961	0.150387	0.029975	0.070694	0.035205	0.016142	0.072141	0.028248	0.012211	0.613161	0.127091	0.093072
2.497	0.125849	0.184179	0.041259	0.024778	0.124843	0.150749	0.030022	0.070759	0.035218	0.016129	0.070887	0.028573	0.012262	0.613327	0.12767	0.093253
2.4975	0.124733	0.182881	0.041412	0.024848	0.124698	0.151095	0.030066	0.070821	0.035227	0.016116	0.069654	0.028903	0.012311	0.61343	0.128246	0.093424
2.498	0.123623	0.181575	0.041561	0.024915	0.124528	0.151425	0.030105	0.070879	0.035231	0.016102	0.068443	0.029237	0.012357	0.61347	0.128818	0.093583
2.4985	0.122521	0.180262	0.041707	0.02498	0.124332	0.151737	0.030141	0.070934	0.035232	0.016088	0.067253	0.029574	0.012401	0.613447	0.129386	0.093732
2.499	0.121425	0.178942	0.041851	0.025044	0.124111	0.152032	0.030173	0.070984	0.035229	0.016072	0.066085	0.029916	0.012442	0.613362	0.129949	0.093871
2.4995	0.120337	0.177616	0.041991	0.025105	0.123864	0.152307	0.030201	0.071031	0.035223	0.016056	0.06494	0.030262	0.012481	0.613215	0.130509	0.094
2.5	0.119256	0.176285	0.042129	0.025165	0.12359	0.152562	0.030225	0.071073	0.035212	0.01604	0.063817	0.030612	0.012516	0.613005	0.131062	0.094118
2.5005	0.118182	0.174949	0.042263	0.025222	0.123292	0.152796	0.030244	0.071111	0.035198	0.016022	0.062717	0.030966	0.012549	0.612734	0.131611	0.094226
2.501	0.117116	0.173609	0.042394	0.025277	0.122967	0.153009	0.030259	0.071144	0.03518	0.016004	0.06164	0.031324	0.012579	0.6124	0.132154	0.094325
2.5015	0.116058	0.172266	0.042521	0.025331	0.122617	0.153201	0.03027	0.071172	0.035158	0.015986	0.060586	0.031686	0.012606	0.612004	0.13269	0.094414
2.502	0.115008	0.17092	0.042645	0.025382	0.122242	0.15337	0.030276	0.071195	0.035132	0.015966	0.059556	0.032052	0.01263	0.611546	0.133219	0.094493
2.5025	0.113965	0.169572	0.042765	0.02543	0.121841	0.153516	0.030277	0.071212	0.035103	0.015946	0.05855	0.032423	0.012652	0.611024	0.133742	0.094563
2.503	0.112931	0.168222	0.042882	0.025477	0.121414	0.153639	0.030274	0.071224	0.03507	0.015925	0.057567	0.032797	0.01267	0.610438	0.134256	0.094623
2.5035	0.111904	0.166871	0.042995	0.025521	0.120963	0.15374	0.030266	0.071231	0.035034	0.015904	0.056609	0.033176	0.012685	0.609787	0.134762	0.094675
2.504	0.110886	0.16552	0.043104	0.025563	0.120488	0.153816	0.030253	0.071231	0.034993	0.015881	0.055675	0.033559	0.012696	0.609071	0.135259	0.094717
2.5045	0.109875	0.164169	0.043209	0.025603	0.119988	0.153869	0.030235	0.071226	0.03495	0.015858	0.054766	0.033947	0.012705	0.608287	0.135746	0.09475
2.505	0.108873	0.162818	0.04331	0.02564	0.119465	0.153898	0.030212	0.071215	0.034902	0.015834	0.053881	0.034338	0.01271	0.607436	0.136223	0.094774
2.5055	0.107879	0.16147	0.043408	0.025675	0.118918	0.153902	0.030185	0.071197	0.034851	0.01581	0.053021	0.034734	0.012713	0.606516	0.13669	0.094789
2.506	0.106893	0.160124	0.043501	0.025708	0.11835	0.153881	0.030152	0.071174	0.034796	0.015785	0.052186	0.035134	0.012712	0.605527	0.137145	0.094795
2.5065	0.105915	0.158781	0.043591	0.025739	0.117759	0.153836	0.030114	0.071144	0.034737	0.015759	0.051376	0.035538	0.012708	0.604466	0.137588	0.094792
2.507	0.104945	0.157442	0.043677	0.025767	0.117148	0.153764	0.030071	0.071109	0.034674	0.015732	0.050592	0.035946	0.012701	0.603335	0.138018	0.09478
2.5075	0.103984	0.156108	0.043758	0.025793	0.116516	0.153668	0.030024	0.071068	0.034608	0.015705	0.049833	0.036359	0.01269	0.602132	0.138435	0.094759
2.508	0.103032	0.15478	0.043836	0.025818	0.115865	0.153547	0.029971	0.071021	0.034538	0.015676	0.049099	0.036776	0.012677	0.600857	0.138838	0.094728
2.5085	0.102089	0.153458	0.04391	0.02584	0.115194	0.1534	0.029914	0.07097	0.034465	0.015648	0.048391	0.037196	0.01266	0.59951	0.139227	0.094689
2.509	0.101155	0.152144	0.04398	0.025859	0.114505	0.153229	0.029852	0.070913	0.034387	0.015618	0.047708	0.037622	0.012641	0.598091	0.1396	0.09464
2.5095	0.10023	0.150837	0.044046	0.025877	0.113799	0.153033	0.029786	0.070852	0.034306	0.015588	0.047051	0.038051	0.012618	0.596599	0.139958	0.094582
2.51	0.099314	0.149539	0.044108	0.025894	0.113075	0.152814	0.029714	0.070786	0.034222	0.015557	0.04642	0.038485	0.012592	0.595033	0.1403	0.094516
2.5105	0.098409	0.14825	0.044167	0.025908	0.112335	0.152571	0.029639	0.070716	0.034133	0.015526	0.045814	0.038923	0.012564	0.593393	0.140625	0.09444
2.511	0.097513	0.146972	0.044222	0.02592	0.111579	0.152304	0.029558	0.070642	0.034041	0.015494	0.045234	0.039365	0.012533	0.591678	0.140933	0.094354
2.5115	0.096626	0.145704	0.044273	0.025931	0.110808	0.152015	0.029474	0.070565	0.033946	0.015461	0.04468	0.039811	0.012498	0.589887	0.141223	0.09426
2.512	0.09575	0.144447	0.044321	0.025941	0.110022	0.151702	0.029385	0.070485	0.033847	0.015427	0.044152	0.040262	0.012461	0.588021	0.141494	0.094156
2.5125	0.094884	0.143202	0.044366	0.025949	0.109222	0.151368	0.029292	0.070402	0.033744	0.015393	0.043649	0.040718	0.012422	0.586077	0.141747	0.094043
2.513	0.094028	0.141969	0.044407	0.025956	0.108408	0.15101	0.029195	0.070316	0.033638	0.015359	0.043173	0.041177	0.012379	0.584057	0.141981	0.093922
2.5135	0.093182	0.140749	0.044445	0.025962	0.107581	0.150631	0.029093	0.070228	0.033529	0.015323	0.042722	0.041642	0.012334	0.581959	0.142195	0.093791
2.514	0.092346	0.139543	0.04448	0.025967	0.106742	0.15023	0.028988	0.070139	0.033416	0.015287	0.042297	0.04211	0.012287	0.579783	0.14239	0.093651
2.5145	0.091521	0.13835	0.044511	0.02597	0.105892	0.149808	0.028879	0.070047	0.0333	0.01525	0.041898	0.042583	0.012236	0.577528	0.142565	0.093503
2.515	0.090706	0.137171	0.04454	0.025973	0.10503	0.149364	0.028765	0.069954	0.033181	0.015213	0.041524	0.043061	0.012184	0.575194	0.142721	0.093346
2.5155	0.089901	0.136008	0.044566	0.025975	0.104158	0.148899	0.028648	0.069859	0.033058	0.015175	0.041177	0.043543	0.012129	0.572782	0.142857	0.093181
2.516	0.089107	0.134859	0.044589	0.025977	0.103276	0.148412	0.028528	0.069764	0.032933	0.015136	0.040854	0.04403	0.012071	0.570291	0.142974	0.093008
2.5165	0.088324	0.133726	0.044609	0.025977	0.102385	0.147905	0.028404	0.069667	0.032804	0.015097	0.040558	0.044522	0.012011	0.567721	0.143071	0.092827
2.517	0.087552	0.132608	0.044627	0.025978	0.101486	0.147376	0.028276	0.06957	0.032673	0.015057	0.040287	0.045019	0.011949	0.565074	0.143148	0.092639
2.5175	0.086791	0.131506	0.044642	0.025978	0.10058	0.146826	0.028146	0.069472	0.032539	0.015016	0.040042	0.045522	0.011885	0.56235	0.143206	0.092443
2.518	0.086042	0.130421	0.044655	0.025978	0.099667	0.146256	0.028012	0.069374	0.032402	0.014975	0.039822	0.046029	0.011819	0.559549	0.143245	0.09224
2.5185	0.085304	0.129352	0.044666	0.025978	0.098747	0.145665	0.027876	0.069276	0.032263	0.014933	0.039628	0.046543	0.011751	0.556671	0.143264	0.09203
2.519	0.084579	0.1283	0.044675	0.025979	0.097822	0.145053	0.027737	0.069178	0.032122	0.014891	0.039459	0.047062	0.011681	0.553718	0.143263	0.091812
2.5195	0.083865	0.127264	0.044682	0.025979	0.096893	0.144421	0.027595	0.06908	0.031978	0.014849	0.039315	0.047587	0.011609	0.55069	0.143243	0.091588
2.52	0.083164	0.126245	0.044687	0.02598	0.095959	0.143769	0.02745	0.068983	0.031832	0.014805	0.039197	0.048117	0.011535	0.547586	0.143204	0.091357
2.5205	0.082476	0.125243	0.044691	0.025981	0.095021	0.143098	0.027304	0.068886	0.031684	0.014762	0.039104	0.048654	0.01146	0.544408	0.143146	0.09112
2.521	0.0818	0.124259	0.044692	0.025982	0.094081	0.142407	0.027155	0.068789	0.031534	0.014718	0.039036	0.049197	0.011382	0.541155	0.143069	0.090876
2.5215	0.081136	0.123291	0.044693	0.025985	0.093138	0.141697	0.027003	0.068694	0.031382	0.014673	0.038993	0.049746	0.011304	0.537828	0.142974	0.090626
2.522	0.080486	0.12234	0.044691	0.025988	0.092194	0.140968	0.02685	0.068599	0.031228	0.014628	0.038975	0.050301	0.011224	0.534428	0.142861	0.090371
2.5225	0.079849	0.121406	0.044689	0.025992	0.091248	0.14022	0.026695	0.068506	0.031073	0.014583	0.038982	0.050862	0.011142	0.530955	0.14273	0.090109
2.523	0.079226	0.120489	0.044685	0.025997	0.090301	0.139455	0.026538	0.068413	0.030917	0.014537	0.039014	0.05143	0.011059	0.527409	0.142583	0.089843
2.5235	0.078616	0.119589	0.04468	0.026003	0.089354	0.138671	0.026379	0.068322	0.030759	0.014491	0.03907	0.052004	0.010975	0.523793	0.142418	0.089571
2.524	0.078019	0.118706	0.044674	0.02601	0.088407	0.13787	0.026219	0.068232	0.030601	0.014445	0.039151	0.052585	0.01089	0.520105	0.142238	0.089295
2.5245	0.077436	0.117839	0.044667	0.026019	0.087461	0.137051	0.026058	0.068143	0.030441	0.014398	0.039256	0.053172	0.010804	0.516349	0.142041	0.089014
2.525	0.076868	0.116989	0.044659	0.026029	0.086516	0.136214	0.025894	0.068056	0.03028	0.014351	0.039386	0.053766	0.010717	0.512523	0.141829	0.088728
2.5255	0.076313	0.116155	0.044651	0.026041	0.085572	0.135361	0.02573	0.06797	0.030118	0.014304	0.03954	0.054366	0.010629	0.50863	0.141601	0.088439
2.526	0.075772	0.115337	0.044642	0.026054	0.08463	0.13449	0.025565	0.067885	0.029956	0.014256	0.039718	0.054973	0.01054	0.504671	0.141359	0.088146
2.5265	0.075246	0.114534	0.044632	0.02607	0.083691	0.133603	0.025398	0.067802	0.029792	0.014208	0.039921	0.055587	0.01045	0.500648	0.141102	0.087848
2.527	0.074733	0.113748	0.044622	0.026087	0.082754	0.132698	0.025231	0.067721	0.029629	0.014159	0.040147	0.056207	0.01036	0.496561	0.14083	0.087548
2.5275	0.074235	0.112976	0.044612	0.026106	0.08182	0.131778	0.025063	0.067642	0.029464	0.01411	0.040397	0.056833	0.010269	0.492412	0.140544	0.087243
2.528	0.073751	0.11222	0.044601	0.026127	0.080889	0.130841	0.024894	0.067564	0.029299	0.014061	0.040671	0.057467	0.010178	0.488205	0.140243	0.086936
2.5285	0.073281	0.111478	0.044591	0.026151	0.079962	0.129888	0.024725	0.067488	0.029134	0.014012	0.040969	0.058106	0.010086	0.48394	0.139929	0.086624
2.529	0.072826	0.110751	0.044581	0.026177	0.079039	0.128919	0.024555	0.067414	0.028968	0.013962	0.04129	0.058752	0.009994	0.479623	0.139601	0.08631
2.5295	0.072385	0.110039	0.04457	0.026205	0.07812	0.127934	0.024385	0.067342	0.028802	0.013911	0.041635	0.059404	0.009901	0.475254	0.13926	0.085992
2.53	0.071958	0.109341	0.04456	0.026236	0.077205	0.126934	0.024215	0.067273	0.028635	0.013861	0.042003	0.060063	0.009808	0.470839	0.138904	0.085672
2.5305	0.071546	0.108657	0.044551	0.02627	0.076295	0.125919	0.024044	0.067206	0.028469	0.01381	0.042394	0.060728	0.009715	0.46638	0.138536	0.085347
2.531	0.071148	0.107987	0.044542	0.026307	0.075389	0.124889	0.023874	0.067141	0.028302	0.013759	0.042808	0.061398	0.009622	0.46188	0.138155	0.08502
2.5315	0.070765	0.10733	0.044534	0.026347	0.074488	0.123843	0.023703	0.067079	0.028134	0.013707	0.043245	0.062075	0.009529	0.457342	0.137761	0.084689
2.532	0.070397	0.106687	0.044527	0.02639	0.073593	0.122783	0.023533	0.067019	0.027967	0.013656	0.043705	0.062758	0.009435	0.452771	0.137354	0.084355
2.5325	0.070043	0.106057	0.044521	0.026436	0.072703	0.121708	0.023363	0.066963	0.027799	0.013604	0.044188	0.063447	0.009342	0.448169	0.136935	0.084018
2.533	0.069703	0.10544	0.044516	0.026485	0.071818	0.120618	0.023193	0.066909	0.027632	0.013551	0.044693	0.064142	0.009249	0.44354	0.136504	0.083677
2.5335	0.069379	0.104837	0.044513	0.026538	0.070939	0.119513	0.023024	0.066859	0.027464	0.013498	0.04522	0.064843	0.009155	0.438888	0.136061	0.083333
2.534	0.069069	0.104246	0.044511	0.026595	0.070066	0.118394	0.022855	0.066812	0.027295	0.013445	0.045769	0.06555	0.009062	0.434217	0.135605	0.082985
2.5345	0.068773	0.103668	0.044511	0.026656	0.069198	0.117261	0.022687	0.066769	0.027127	0.013392	0.04634	0.066262	0.008969	0.429529	0.135138	0.082634
2.535	0.068493	0.103104	0.044513	0.02672	0.068337	0.116114	0.022519	0.066729	0.026959	0.013338	0.046933	0.06698	0.008877	0.424828	0.134659	0.082279
2.5355	0.068226	0.102552	0.044517	0.026789	0.067481	0.114952	0.022352	0.066694	0.02679	0.013284	0.047548	0.067704	0.008784	0.420118	0.134169	0.081921
2.536	0.067975	0.102012	0.044523	0.026862	0.066631	0.113777	0.022186	0.066662	0.026622	0.013229	0.048184	0.068433	0.008692	0.415401	0.133667	0.081559
2.5365	0.067737	0.101484	0.044531	0.026939	0.065787	0.112589	0.02202	0.066634	0.026453	0.013174	0.048841	0.069167	0.0086	0.410682	0.133154	0.081193
2.537	0.067515	0.100969	0.044542	0.02702	0.064949	0.111387	0.021856	0.06661	0.026284	0.013119	0.049519	0.069906	0.008508	0.405963	0.132629	0.080823
2.5375	0.067307	0.100465	0.044555	0.027106	0.064117	0.110173	0.021692	0.066591	0.026115	0.013063	0.050217	0.070651	0.008417	0.401249	0.132094	0.080449
2.538	0.067113	0.099973	0.044571	0.027196	0.063291	0.108947	0.021529	0.066575	0.025946	0.013007	0.050936	0.071401	0.008326	0.396543	0.131547	0.08007
2.5385	0.066934	0.099493	0.044589	0.027292	0.062472	0.107709	0.021367	0.066564	0.025777	0.012951	0.051676	0.072157	0.008235	0.391847	0.13099	0.079688
2.539	0.066769	0.099023	0.04461	0.027392	0.061658	0.10646	0.021206	0.066558	0.025608	0.012894	0.052435	0.072917	0.008145	0.387167	0.130422	0.079301
2.5395	0.066618	0.098565	0.044633	0.027496	0.06085	0.1052	0.021046	0.066555	0.025439	0.012836	0.053214	0.073682	0.008056	0.382503	0.129845	0.07891
2.54	0.066482	0.098118	0.04466	0.027606	0.060048	0.10393	0.020887	0.066557	0.02527	0.012778	0.054013	0.074452	0.007966	0.377861	0.129257	0.078514
2.5405	0.06636	0.097681	0.044689	0.027721	0.059253	0.10265	0.02073	0.066564	0.0251	0.01272	0.054832	0.075226	0.007878	0.373242	0.128659	0.078114
2.541	0.066252	0.097255	0.044721	0.027841	0.058463	0.101362	0.020573	0.066575	0.024931	0.012661	0.055669	0.076006	0.007789	0.36865	0.128051	0.077709
2.5415	0.066157	0.09684	0.044756	0.027966	0.05768	0.100066	0.020418	0.066591	0.024761	0.012602	0.056525	0.07679	0.007702	0.364087	0.127433	0.077299
2.542	0.066076	0.096435	0.044794	0.028097	0.056904	0.098763	0.020264	0.066611	0.02459	0.012542	0.0574	0.077578	0.007614	0.359556	0.126805	0.076884
2.5425	0.066009	0.096039	0.044836	0.028232	0.056133	0.097453	0.020112	0.066635	0.02442	0.012482	0.058294	0.07837	0.007528	0.35506	0.126168	0.076464
2.543	0.065955	0.095653	0.04488	0.028373	0.05537	0.096138	0.01996	0.066664	0.024249	0.012421	0.059205	0.079167	0.007442	0.350601	0.125521	0.076039
2.5435	0.065915	0.095277	0.044928	0.028519	0.054612	0.094818	0.019811	0.066697	0.024078	0.01236	0.060135	0.079968	0.007357	0.346182	0.124864	0.075609
2.544	0.065888	0.094909	0.044978	0.02867	0.053861	0.093494	0.019662	0.066734	0.023906	0.012299	0.061081	0.080773	0.007272	0.341805	0.124197	0.075175
2.5445	0.065874	0.094551	0.045032	0.028827	0.053117	0.092166	0.019515	0.066776	0.023734	0.012237	0.062045	0.081582	0.007188	0.337472	0.12352	0.074736
2.545	0.065872	0.0942	0.045088	0.028989	0.052379	0.090836	0.01937	0.066822	0.023562	0.012175	0.063026	0.082396	0.007105	0.333185	0.122833	0.074292
2.5455	0.065884	0.093858	0.045148	0.029157	0.051647	0.089505	0.019226	0.066873	0.023389	0.012113	0.064024	0.083213	0.007022	0.328948	0.122135	0.073843
2.546	0.065908	0.093523	0.045211	0.029329	0.050923	0.088172	0.019084	0.066927	0.023216	0.01205	0.065039	0.084033	0.00694	0.32476	0.121428	0.07339
2.5465	0.065945	0.093196	0.045276	0.029507	0.050205	0.086838	0.018944	0.066985	0.023043	0.011987	0.066069	0.084858	0.006859	0.320626	0.12071	0.072932
2.547	0.065994	0.092875	0.045345	0.029691	0.049494	0.085504	0.018805	0.067048	0.022869	0.011923	0.067116	0.085685	0.006779	0.316546	0.119982	0.07247
2.5475	0.066055	0.092561	0.045416	0.029879	0.04879	0.084172	0.018668	0.067114	0.022695	0.01186	0.068178	0.086517	0.006699	0.312522	0.119244	0.072004
2.548	0.066128	0.092254	0.04549	0.030073	0.048094	0.08284	0.018532	0.067184	0.02252	0.011796	0.069256	0.087351	0.00662	0.308557	0.118497	0.071532
2.5485	0.066213	0.091952	0.045567	0.030272	0.047405	0.08151	0.018398	0.067257	0.022346	0.011732	0.070349	0.088188	0.006542	0.304651	0.117739	0.071057
2.549	0.066309	0.091655	0.045646	0.030475	0.046723	0.080183	0.018266	0.067334	0.022171	0.011667	0.071456	0.089027	0.006464	0.300807	0.116972	0.070577
2.5495	0.066416	0.091364	0.045728	0.030684	0.046049	0.07886	0.018136	0.067414	0.021995	0.011602	0.072578	0.08987	0.006388	0.297025	0.116195	0.070094
2.55	0.066535	0.091077	0.045812	0.030898	0.045383	0.077539	0.018007	0.067498	0.021819	0.011537	0.073714	0.090714	0.006312	0.293308	0.115408	0.069606
2.5505	0.066664	0.090794	0.045898	0.031117	0.044724	0.076223	0.01788	0.067584	0.021643	0.011472	0.074864	0.09156	0.006237	0.289657	0.114612	0.069115
2.551	0.066803	0.090516	0.045986	0.03134	0.044074	0.074912	0.017755	0.067673	0.021467	0.011407	0.076027	0.092408	0.006163	0.286072	0.113806	0.06862
2.5515	0.066953	0.090242	0.046076	0.031568	0.043431	0.073606	0.017632	0.067764	0.02129	0.011341	0.077203	0.093257	0.00609	0.282556	0.112991	0.068123
2.552	0.067113	0.08997	0.046167	0.0318	0.042797	0.072306	0.01751	0.067857	0.021112	0.011276	0.078392	0.094107	0.006018	0.279109	0.112166	0.067622
2.5525	0.067282	0.089702	0.04626	0.032037	0.042171	0.071012	0.017391	0.067953	0.020935	0.01121	0.079592	0.094957	0.005947	0.275733	0.111332	0.067118
2.553	0.067461	0.089437	0.046354	0.032278	0.041553	0.069725	0.017273	0.06805	0.020757	0.011144	0.080804	0.095807	0.005877	0.272428	0.110488	0.066612
2.5535	0.067648	0.089174	0.04645	0.032523	0.040944	0.068445	0.017157	0.068148	0.020579	0.011078	0.082028	0.096657	0.005807	0.269195	0.109636	0.066104
2.554	0.067844	0.088914	0.046546	0.032772	0.040343	0.067173	0.017042	0.068248	0.0204	0.011012	0.083262	0.097506	0.005739	0.266036	0.108774	0.065594
2.5545	0.068048	0.088656	0.046643	0.033025	0.039751	0.065909	0.01693	0.068348	0.020221	0.010946	0.084507	0.098353	0.005671	0.26295	0.107904	0.065082
2.555	0.068261	0.0884	0.04674	0.033282	0.039168	0.064654	0.016819	0.068449	0.020042	0.01088	0.085762	0.099199	0.005604	0.259938	0.107025	0.064569
2.5555	0.068481	0.088146	0.046837	0.033542	0.038593	0.063407	0.016711	0.068549	0.019863	0.010814	0.087026	0.100043	0.005539	0.257002	0.106139	0.064055
2.556	0.068708	0.087894	0.046934	0.033805	0.038027	0.06217	0.016604	0.06865	0.019683	0.010748	0.0883	0.100883	0.005474	0.254141	0.105245	0.06354
2.5565	0.068942	0.087643	0.047031	0.034071	0.03747	0.060942	0.016499	0.06875	0.019504	0.010682	0.089582	0.10172	0.00541	0.251357	0.104344	0.063024
2.557	0.069183	0.087394	0.047127	0.03434	0.036922	0.059725	0.016396	0.06885	0.019324	0.010617	0.090873	0.102552	0.005347	0.248648	0.103438	0.062508
2.5575	0.069431	0.087146	0.047222	0.034612	0.036383	0.058517	0.016294	0.068948	0.019144	0.010551	0.092172	0.10338	0.005285	0.246017	0.102525	0.061992
2.558	0.069685	0.086901	0.047316	0.034886	0.035853	0.05732	0.016195	0.069045	0.018965	0.010485	0.093479	0.104203	0.005224	0.243462	0.101607	0.061475
2.5585	0.069945	0.086658	0.047409	0.035163	0.035332	0.056134	0.016097	0.06914	0.018785	0.01042	0.094793	0.105019	0.005164	0.240985	0.100684	0.060959
2.559	0.070211	0.086417	0.0475	0.035442	0.034821	0.05496	0.016001	0.069232	0.018606	0.010354	0.096115	0.105829	0.005105	0.238584	0.099757	0.060444
2.5595	0.070482	0.086178	0.047588	0.035722	0.034319	0.053796	0.015907	0.069322	0.018427	0.010289	0.097444	0.106631	0.005047	0.236261	0.098826	0.059929
2.56	0.070758	0.085942	0.047675	0.036004	0.033826	0.052644	0.015815	0.06941	0.018249	0.010223	0.098779	0.107426	0.00499	0.234016	0.097892	0.059415
2.5605	0.07104	0.085708	0.047758	0.036287	0.033343	0.051504	0.015725	0.069494	0.01807	0.010158	0.100121	0.108211	0.004933	0.231847	0.096955	0.058902
2.561	0.071325	0.085477	0.047839	0.036571	0.032869	0.050376	0.015636	0.069574	0.017893	0.010093	0.101469	0.108988	0.004878	0.229756	0.096016	0.058391
2.5615	0.071615	0.085249	0.047916	0.036856	0.032405	0.049261	0.015549	0.069651	0.017715	0.010028	0.102822	0.109754	0.004823	0.227743	0.095076	0.057881
2.562	0.07191	0.085025	0.047989	0.037141	0.031951	0.048158	0.015464	0.069723	0.017539	0.009963	0.10418	0.110509	0.00477	0.225806	0.094135	0.057373
2.5625	0.072208	0.084803	0.048059	0.037427	0.031506	0.047067	0.01538	0.06979	0.017363	0.009899	0.105544	0.111252	0.004717	0.223945	0.093193	0.056866
2.563	0.07251	0.084585	0.048124	0.037713	0.031071	0.045989	0.015298	0.069852	0.017187	0.009834	0.106912	0.111983	0.004666	0.222161	0.092251	0.056363
2.5635	0.072815	0.084371	0.048185	0.037998	0.030645	0.044925	0.015217	0.069908	0.017013	0.009769	0.108284	0.1127	0.004615	0.220453	0.09131	0.055861
2.564	0.073123	0.084161	0.048241	0.038283	0.030229	0.043873	0.015138	0.069959	0.016839	0.009705	0.109661	0.113404	0.004565	0.218821	0.090371	0.055363
2.5645	0.073435	0.083955	0.048293	0.038568	0.029823	0.042835	0.015061	0.070004	0.016666	0.009641	0.11104	0.114092	0.004516	0.217263	0.089432	0.054867
2.565	0.073749	0.083753	0.048339	0.038852	0.029427	0.041809	0.014985	0.070043	0.016493	0.009576	0.112423	0.114765	0.004468	0.215781	0.088496	0.054374
2.5655	0.074066	0.083555	0.048381	0.039135	0.02904	0.040798	0.01491	0.070075	0.016322	0.009512	0.113809	0.115422	0.00442	0.214372	0.087562	0.053884
2.566	0.074385	0.083361	0.048417	0.039417	0.028663	0.0398	0.014837	0.070101	0.016152	0.009448	0.115198	0.116061	0.004374	0.213036	0.086631	0.053398
2.5665	0.074707	0.083173	0.048449	0.039698	0.028295	0.038815	0.014764	0.07012	0.015983	0.009384	0.116589	0.116683	0.004328	0.211774	0.085704	0.052915
2.567	0.075031	0.082989	0.048474	0.039977	0.027937	0.037844	0.014694	0.070133	0.015815	0.00932	0.117982	0.117287	0.004283	0.210584	0.08478	0.052436
2.5675	0.075358	0.08281	0.048495	0.040255	0.027589	0.036887	0.014624	0.07014	0.015648	0.009256	0.119376	0.117873	0.004239	0.209465	0.08386	0.05196
2.568	0.075686	0.082636	0.04851	0.040532	0.02725	0.035944	0.014556	0.07014	0.015482	0.009193	0.120772	0.11844	0.004196	0.208416	0.082944	0.051488
2.5685	0.076016	0.082468	0.048521	0.040807	0.02692	0.035015	0.01449	0.070135	0.015317	0.009129	0.12217	0.118989	0.004153	0.207438	0.082033	0.05102
2.569	0.076348	0.082305	0.048526	0.04108	0.0266	0.034099	0.014424	0.070123	0.015154	0.009065	0.123568	0.119518	0.004112	0.206529	0.081127	0.050556
2.5695	0.076682	0.082148	0.048527	0.041352	0.026289	0.033198	0.01436	0.070105	0.014992	0.009001	0.124967	0.120029	0.004071	0.205689	0.080227	0.050096
2.57	0.077018	0.081997	0.048523	0.041623	0.025987	0.03231	0.014297	0.070082	0.014831	0.008938	0.126366	0.120519	0.00403	0.204915	0.079332	0.04964
2.5705	0.077356	0.081853	0.048515	0.041892	0.025695	0.031437	0.014235	0.070053	0.014672	0.008874	0.127767	0.120991	0.003991	0.204208	0.078443	0.049189
2.571	0.077696	0.081714	0.048503	0.04216	0.025412	0.030577	0.014174	0.070019	0.014514	0.00881	0.129168	0.121443	0.003952	0.203566	0.077559	0.048741
2.5715	0.078038	0.081583	0.048487	0.042426	0.025137	0.029731	0.014115	0.069979	0.014358	0.008747	0.130571	0.121876	0.003914	0.202989	0.076682	0.048297
2.572	0.078383	0.081458	0.048468	0.042692	0.024872	0.028899	0.014057	0.069936	0.014203	0.008683	0.131974	0.12229	0.003876	0.202474	0.075812	0.047858
2.5725	0.07873	0.08134	0.048445	0.042956	0.024615	0.028081	0.014	0.069888	0.01405	0.008619	0.133378	0.122686	0.003839	0.202021	0.074948	0.047423
2.573	0.07908	0.08123	0.04842	0.04322	0.024367	0.027277	0.013945	0.069836	0.013898	0.008556	0.134783	0.123063	0.003803	0.201629	0.07409	0.046992
2.5735	0.079433	0.081127	0.048392	0.043483	0.024127	0.026487	0.013891	0.069781	0.013747	0.008492	0.136189	0.123423	0.003767	0.201297	0.073239	0.046565
2.574	0.079789	0.081032	0.048361	0.043745	0.023896	0.025711	0.013839	0.069722	0.013599	0.008428	0.137596	0.123765	0.003732	0.201023	0.072396	0.046142
2.5745	0.080148	0.080944	0.048329	0.044006	0.023673	0.024949	0.013788	0.069661	0.013451	0.008365	0.139003	0.12409	0.003697	0.200805	0.071559	0.045724
2.575	0.08051	0.080865	0.048294	0.044266	0.023458	0.0242	0.013738	0.069597	0.013306	0.008301	0.140411	0.124398	0.003663	0.200643	0.070729	0.04531
2.5755	0.080875	0.080794	0.048258	0.044527	0.023251	0.023465	0.01369	0.06953	0.013162	0.008238	0.141819	0.12469	0.00363	0.200535	0.069907	0.044899
2.576	0.081243	0.080731	0.04822	0.044786	0.023052	0.022744	0.013644	0.069461	0.013019	0.008175	0.143228	0.124966	0.003596	0.20048	0.069092	0.044493
2.5765	0.081615	0.080677	0.04818	0.045046	0.022861	0.022036	0.013599	0.069391	0.012878	0.008112	0.144636	0.125226	0.003564	0.200476	0.068284	0.044091
2.577	0.081989	0.080632	0.04814	0.045305	0.022678	0.021341	0.013555	0.069319	0.012739	0.008049	0.146044	0.125472	0.003532	0.200521	0.067484	0.043692
2.5775	0.082367	0.080596	0.048099	0.045563	0.022502	0.020661	0.013513	0.069245	0.012601	0.007986	0.147452	0.125702	0.0035	0.200615	0.066692	0.043298
2.578	0.082747	0.080569	0.048057	0.045822	0.022333	0.019993	0.013473	0.06917	0.012465	0.007923	0.148859	0.125919	0.003468	0.200756	0.065908	0.042907
2.5785	0.083131	0.080551	0.048015	0.04608	0.022172	0.019339	0.013434	0.069094	0.012331	0.007861	0.150264	0.126122	0.003437	0.200942	0.065132	0.04252
2.579	0.083518	0.080543	0.047972	0.046338	0.022017	0.018698	0.013397	0.069017	0.012198	0.007799	0.151668	0.126312	0.003407	0.201174	0.064363	0.042136
2.5795	0.083908	0.080544	0.047929	0.046595	0.021869	0.01807	0.013362	0.068939	0.012067	0.007737	0.15307	0.12649	0.003376	0.201448	0.063603	0.041756
2.58	0.0843	0.080555	0.047885	0.046852	0.021728	0.017455	0.013329	0.06886	0.011937	0.007675	0.154469	0.126655	0.003346	0.201764	0.062852	0.04138
2.5805	0.084696	0.080575	0.047842	0.047109	0.021594	0.016852	0.013297	0.068781	0.011809	0.007613	0.155865	0.126808	0.003317	0.202122	0.062109	0.041006
2.581	0.085093	0.080605	0.047798	0.047365	0.021465	0.016263	0.013267	0.068701	0.011683	0.007552	0.157257	0.12695	0.003287	0.202519	0.061374	0.040636
2.5815	0.085494	0.080644	0.047755	0.047621	0.021343	0.015686	0.013239	0.068621	0.011559	0.007491	0.158646	0.12708	0.003259	0.202955	0.060648	0.04027
2.582	0.085896	0.080693	0.047712	0.047877	0.021227	0.015122	0.013212	0.06854	0.011436	0.007431	0.160029	0.1272	0.00323	0.203428	0.059931	0.039906
2.5825	0.086301	0.080751	0.04767	0.048131	0.021117	0.01457	0.013188	0.068459	0.011314	0.00737	0.161406	0.12731	0.003202	0.203937	0.059223	0.039545
2.583	0.086707	0.080818	0.047627	0.048385	0.021013	0.014031	0.013166	0.068378	0.011195	0.00731	0.162778	0.12741	0.003174	0.204481	0.058523	0.039188
2.5835	0.087115	0.080895	0.047585	0.048638	0.020914	0.013504	0.013146	0.068297	0.011077	0.007251	0.164142	0.1275	0.003146	0.205059	0.057833	0.038833
2.584	0.087525	0.080981	0.047544	0.04889	0.02082	0.012989	0.013128	0.068216	0.01096	0.007191	0.165498	0.12758	0.003118	0.205669	0.057153	0.038481
2.5845	0.087935	0.081075	0.047503	0.049142	0.020732	0.012486	0.013112	0.068135	0.010846	0.007132	0.166846	0.127651	0.003091	0.206311	0.056482	0.038131
2.585	0.088347	0.081179	0.047462	0.049391	0.020648	0.011995	0.013098	0.068054	0.010732	0.007073	0.168183	0.127713	0.003064	0.206984	0.05582	0.037785
2.5855	0.088759	0.081291	0.047422	0.04964	0.02057	0.011515	0.013087	0.067973	0.010621	0.007015	0.169511	0.127767	0.003038	0.207685	0.055168	0.037441
2.586	0.089171	0.081413	0.047383	0.049887	0.020495	0.011048	0.013077	0.067892	0.010511	0.006957	0.170827	0.127811	0.003011	0.208414	0.054525	0.0371
2.5865	0.089583	0.081542	0.047344	0.050132	0.020426	0.010591	0.01307	0.067812	0.010403	0.006899	0.172131	0.127847	0.002985	0.20917	0.053892	0.036761
2.587	0.089994	0.08168	0.047306	0.050376	0.02036	0.010146	0.013066	0.067732	0.010296	0.006841	0.173423	0.127874	0.00296	0.209951	0.053269	0.036425
2.5875	0.090405	0.081826	0.047269	0.050618	0.020298	0.009713	0.013063	0.067652	0.010191	0.006784	0.1747	0.127893	0.002934	0.210757	0.052656	0.036091
2.588	0.090815	0.08198	0.047231	0.050857	0.02024	0.00929	0.013063	0.067573	0.010088	0.006727	0.175963	0.127903	0.002909	0.211585	0.052052	0.035759
2.5885	0.091224	0.082142	0.047195	0.051095	0.020186	0.008878	0.013066	0.067494	0.009986	0.006671	0.17721	0.127904	0.002884	0.212435	0.051458	0.03543
2.589	0.09163	0.082311	0.047158	0.051329	0.020134	0.008478	0.013071	0.067416	0.009886	0.006615	0.178441	0.127897	0.002859	0.213305	0.050874	0.035104
2.5895	0.092035	0.082488	0.047122	0.051561	0.020086	0.008087	0.013078	0.067339	0.009787	0.006559	0.179655	0.127881	0.002834	0.214195	0.0503	0.034779
2.59	0.092438	0.082672	0.047087	0.051791	0.020041	0.007708	0.013088	0.067263	0.009691	0.006503	0.18085	0.127856	0.00281	0.215102	0.049735	0.034457
2.5905	0.092839	0.082863	0.047051	0.052017	0.019998	0.007338	0.013101	0.067187	0.009595	0.006448	0.182025	0.127822	0.002786	0.216025	0.04918	0.034138
2.591	0.093237	0.083061	0.047016	0.052241	0.019958	0.006979	0.013116	0.067113	0.009502	0.006393	0.18318	0.127778	0.002762	0.216963	0.048635	0.033821
2.5915	0.093632	0.083265	0.046981	0.052461	0.019921	0.00663	0.013134	0.06704	0.009409	0.006338	0.184314	0.127725	0.002739	0.217914	0.0481	0.033507
2.592	0.094024	0.083476	0.046945	0.052677	0.019885	0.006291	0.013154	0.066967	0.009319	0.006283	0.185425	0.127663	0.002715	0.218878	0.047574	0.033195
2.5925	0.094413	0.083693	0.04691	0.05289	0.019851	0.005962	0.013177	0.066896	0.00923	0.006229	0.186513	0.12759	0.002692	0.219852	0.047058	0.032886
2.593	0.094798	0.083915	0.046874	0.0531	0.019819	0.005642	0.013202	0.066827	0.009143	0.006176	0.187577	0.127508	0.00267	0.220835	0.046551	0.032579
2.5935	0.09518	0.084143	0.046838	0.053305	0.019788	0.005332	0.01323	0.066759	0.009058	0.006122	0.188616	0.127415	0.002647	0.221825	0.046054	0.032276
2.594	0.095557	0.084376	0.046802	0.053507	0.019759	0.005031	0.013261	0.066692	0.008974	0.00607	0.18963	0.127312	0.002625	0.222821	0.045566	0.031975
