datacolumns 17
datarows 1707
time	addmag_r	bicfemlh_r	gaslat_r	gasmed_r	gmax_r	gmed_r	gra_r	perlong_r	recfem_r	sar_r	semimem_r	sol_r	tfl_r	tibant_r	vaslat_r	vasmed_r
2.066	0.013799	0.005227	0.018747	0.014526	0.007642	0.017046	0.010746	0.039348	0.031007	0.022501	0.003516	0.01628	0.009533	0.239896	0.011307	0.00876
2.0665	0.01377	0.00523	0.018804	0.014587	0.007652	0.017223	0.010677	0.039451	0.030594	0.022212	0.003482	0.016301	0.009621	0.240201	0.011371	0.008728
2.067	0.013739	0.005232	0.018861	0.014649	0.007662	0.0174	0.01061	0.039556	0.030187	0.02193	0.003447	0.016324	0.009709	0.240531	0.011435	0.008694
2.0675	0.013706	0.005234	0.01892	0.014711	0.007671	0.017576	0.010543	0.039662	0.029786	0.021655	0.003412	0.016347	0.009798	0.240884	0.011498	0.00866
2.068	0.013671	0.005236	0.01898	0.014775	0.00768	0.017753	0.010477	0.039768	0.029391	0.021389	0.003375	0.016371	0.009888	0.241261	0.011561	0.008626
2.0685	0.013635	0.005236	0.01904	0.014839	0.007689	0.017929	0.010411	0.039874	0.029003	0.021131	0.003337	0.016396	0.009978	0.241661	0.011624	0.00859
2.069	0.013597	0.005237	0.019101	0.014903	0.007697	0.018105	0.010346	0.039982	0.028621	0.02088	0.003298	0.016422	0.01007	0.242083	0.011687	0.008554
2.0695	0.013557	0.005237	0.019163	0.014968	0.007705	0.01828	0.010281	0.040089	0.028245	0.020638	0.003258	0.016449	0.010161	0.242526	0.011749	0.008518
2.07	0.013516	0.005237	0.019225	0.015034	0.007712	0.018455	0.010217	0.040197	0.027875	0.020403	0.003218	0.016477	0.010254	0.24299	0.011811	0.008481
2.0705	0.013473	0.005236	0.019288	0.0151	0.007719	0.018629	0.010153	0.040306	0.027512	0.020176	0.003176	0.016505	0.010347	0.243475	0.011873	0.008444
2.071	0.013429	0.005235	0.019352	0.015166	0.007726	0.018803	0.01009	0.040414	0.027155	0.019958	0.003133	0.016535	0.010441	0.24398	0.011934	0.008406
2.0715	0.013383	0.005233	0.019415	0.015232	0.007732	0.018975	0.010027	0.040523	0.026805	0.019747	0.003089	0.016565	0.010535	0.244503	0.011996	0.008367
2.072	0.013336	0.005232	0.019479	0.015299	0.007738	0.019147	0.009965	0.040632	0.026461	0.019544	0.003044	0.016596	0.01063	0.245045	0.012056	0.008328
2.0725	0.013288	0.005229	0.019544	0.015366	0.007743	0.019318	0.009903	0.040741	0.026124	0.019349	0.002998	0.016628	0.010725	0.245605	0.012117	0.008289
2.073	0.013238	0.005227	0.019608	0.015433	0.007748	0.019488	0.009841	0.04085	0.025794	0.019162	0.00295	0.01666	0.010821	0.246183	0.012177	0.008249
2.0735	0.013186	0.005224	0.019672	0.0155	0.007753	0.019657	0.00978	0.040959	0.02547	0.018983	0.002902	0.016694	0.010917	0.246777	0.012237	0.008209
2.074	0.013134	0.005221	0.019737	0.015567	0.007757	0.019824	0.009719	0.041068	0.025152	0.018811	0.002853	0.016728	0.011014	0.247387	0.012296	0.008169
2.0745	0.01308	0.005218	0.019801	0.015634	0.007761	0.019991	0.009658	0.041177	0.024842	0.018648	0.002803	0.016762	0.011111	0.248013	0.012355	0.008128
2.075	0.013025	0.005215	0.019865	0.015701	0.007764	0.020157	0.009598	0.041286	0.024537	0.018492	0.002751	0.016798	0.011208	0.248653	0.012413	0.008087
2.0755	0.01297	0.005211	0.019928	0.015768	0.007767	0.020321	0.009538	0.041395	0.024239	0.018345	0.002699	0.016834	0.011306	0.249308	0.012471	0.008045
2.076	0.012913	0.005207	0.019992	0.015834	0.00777	0.020484	0.009478	0.041504	0.023948	0.018205	0.002645	0.016871	0.011404	0.249975	0.012528	0.008003
2.0765	0.012855	0.005203	0.020055	0.0159	0.007772	0.020646	0.009418	0.041613	0.023663	0.018072	0.00259	0.016908	0.011502	0.250656	0.012584	0.007961
2.077	0.012796	0.005198	0.020117	0.015966	0.007773	0.020807	0.009359	0.041722	0.023385	0.017947	0.002534	0.016946	0.011601	0.251348	0.01264	0.007919
2.0775	0.012736	0.005194	0.020179	0.016031	0.007774	0.020967	0.009299	0.04183	0.023112	0.01783	0.002478	0.016984	0.0117	0.252051	0.012696	0.007876
2.078	0.012675	0.005189	0.020241	0.016096	0.007775	0.021125	0.00924	0.041939	0.022847	0.017721	0.002419	0.017023	0.0118	0.252764	0.012751	0.007833
2.0785	0.012613	0.005184	0.020302	0.01616	0.007775	0.021282	0.009181	0.042048	0.022587	0.017619	0.00236	0.017063	0.0119	0.253487	0.012805	0.007789
2.079	0.01255	0.005179	0.020362	0.016224	0.007775	0.021438	0.009122	0.042156	0.022333	0.017524	0.0023	0.017103	0.012001	0.254218	0.012858	0.007746
2.0795	0.012487	0.005174	0.020421	0.016287	0.007775	0.021592	0.009064	0.042265	0.022086	0.017437	0.002239	0.017143	0.012101	0.254958	0.01291	0.007702
2.08	0.012423	0.005169	0.02048	0.01635	0.007774	0.021745	0.009005	0.042372	0.021845	0.017357	0.002176	0.017183	0.012203	0.255705	0.012962	0.007658
2.0805	0.012357	0.005163	0.020538	0.016411	0.007772	0.021897	0.008947	0.04248	0.021609	0.017285	0.002113	0.017224	0.012304	0.256459	0.013013	0.007613
2.081	0.012292	0.005158	0.020595	0.016473	0.00777	0.022048	0.008888	0.042587	0.02138	0.017219	0.002048	0.017265	0.012407	0.25722	0.013063	0.007569
2.0815	0.012225	0.005152	0.020651	0.016533	0.007768	0.022197	0.00883	0.042693	0.021156	0.017161	0.001982	0.017306	0.012509	0.257985	0.013112	0.007524
2.082	0.012157	0.005146	0.020706	0.016593	0.007766	0.022346	0.008772	0.042799	0.020939	0.01711	0.001915	0.017347	0.012613	0.258755	0.01316	0.007478
2.0825	0.012089	0.00514	0.02076	0.016651	0.007763	0.022493	0.008714	0.042904	0.020727	0.017066	0.001847	0.017388	0.012717	0.259528	0.013207	0.007433
2.083	0.01202	0.005134	0.020813	0.016709	0.007759	0.02264	0.008656	0.043008	0.02052	0.017029	0.001778	0.017429	0.012822	0.260303	0.013252	0.007387
2.0835	0.011951	0.005128	0.020865	0.016766	0.007756	0.022785	0.008598	0.043111	0.02032	0.016998	0.001708	0.01747	0.012927	0.26108	0.013297	0.007341
2.084	0.011881	0.005122	0.020915	0.016822	0.007752	0.02293	0.00854	0.043213	0.020124	0.016975	0.001636	0.017511	0.013033	0.261858	0.01334	0.007295
2.0845	0.01181	0.005115	0.020965	0.016877	0.007747	0.023074	0.008483	0.043314	0.019934	0.016958	0.001564	0.017552	0.01314	0.262635	0.013382	0.007248
2.085	0.011738	0.005108	0.021013	0.016931	0.007743	0.023217	0.008425	0.043413	0.01975	0.016948	0.00149	0.017592	0.013248	0.263411	0.013423	0.007201
2.0855	0.011666	0.005102	0.02106	0.016984	0.007738	0.02336	0.008368	0.04351	0.019571	0.016944	0.001415	0.017632	0.013356	0.264183	0.013462	0.007154
2.086	0.011594	0.005095	0.021106	0.017035	0.007733	0.023502	0.008311	0.043606	0.019397	0.016947	0.001339	0.017672	0.013466	0.264952	0.013499	0.007107
2.0865	0.01152	0.005088	0.02115	0.017086	0.007727	0.023643	0.008253	0.0437	0.019228	0.016956	0.001262	0.017711	0.013576	0.265717	0.013535	0.007059
2.087	0.011446	0.00508	0.021192	0.017135	0.007721	0.023784	0.008196	0.043792	0.019064	0.016972	0.001184	0.01775	0.013687	0.266475	0.013569	0.007011
2.0875	0.011372	0.005073	0.021233	0.017183	0.007715	0.023924	0.008139	0.043882	0.018905	0.016994	0.001104	0.017788	0.013799	0.267226	0.013602	0.006962
2.088	0.011297	0.005065	0.021273	0.017229	0.007709	0.024064	0.008083	0.04397	0.018751	0.017022	0.001024	0.017825	0.013911	0.267969	0.013632	0.006914
2.0885	0.011221	0.005058	0.021311	0.017274	0.007702	0.024203	0.008026	0.044054	0.018601	0.017056	0.000942	0.017861	0.014025	0.268702	0.013661	0.006865
2.089	0.011145	0.00505	0.021347	0.017318	0.007696	0.024342	0.007969	0.044137	0.018457	0.017096	0.000859	0.017897	0.01414	0.269424	0.013688	0.006815
2.0895	0.011068	0.005041	0.021381	0.01736	0.007689	0.02448	0.007913	0.044216	0.018317	0.017142	0.000775	0.017932	0.014255	0.270134	0.013712	0.006765
2.09	0.010991	0.005033	0.021413	0.0174	0.007681	0.024618	0.007856	0.044293	0.018182	0.017194	0.000689	0.017966	0.014372	0.270831	0.013735	0.006715
2.0905	0.010913	0.005024	0.021444	0.017439	0.007674	0.024755	0.0078	0.044367	0.018052	0.017251	0.000603	0.017998	0.01449	0.271512	0.013756	0.006664
2.091	0.010834	0.005015	0.021472	0.017476	0.007666	0.024893	0.007744	0.044437	0.017926	0.017313	0.000515	0.01803	0.014608	0.272177	0.013774	0.006613
2.0915	0.010755	0.005006	0.021498	0.017511	0.007659	0.025029	0.007688	0.044504	0.017805	0.017382	0.000426	0.018061	0.014728	0.272824	0.013791	0.006562
2.092	0.010675	0.004996	0.021522	0.017544	0.007651	0.025166	0.007632	0.044567	0.017688	0.017455	0.000336	0.01809	0.014848	0.273453	0.013804	0.00651
2.0925	0.010595	0.004987	0.021544	0.017576	0.007642	0.025302	0.007576	0.044627	0.017575	0.017533	0.000245	0.018118	0.01497	0.274061	0.013816	0.006458
2.093	0.010514	0.004976	0.021564	0.017606	0.007634	0.025438	0.00752	0.044683	0.017466	0.017617	0.000153	0.018145	0.015092	0.27465	0.013825	0.006405
2.0935	0.010432	0.004966	0.021582	0.017634	0.007625	0.025573	0.007465	0.044736	0.017362	0.017705	6e-05	0.01817	0.015216	0.275217	0.013832	0.006352
2.094	0.010349	0.004955	0.021597	0.01766	0.007617	0.025708	0.007409	0.044784	0.017262	0.017798	0	0.018194	0.01534	0.275763	0.013835	0.006298
2.0945	0.010266	0.004944	0.021611	0.017684	0.007608	0.025842	0.007354	0.044829	0.017166	0.017896	0	0.018217	0.015465	0.276287	0.013837	0.006245
2.095	0.010182	0.004933	0.021622	0.017707	0.007599	0.025976	0.007298	0.044869	0.017074	0.017998	0	0.018238	0.015591	0.276788	0.013835	0.00619
2.0955	0.010097	0.004921	0.021631	0.017727	0.00759	0.026109	0.007243	0.044905	0.016986	0.018105	0	0.018258	0.015718	0.277266	0.013831	0.006136
2.096	0.010011	0.004908	0.021638	0.017746	0.00758	0.026242	0.007188	0.044938	0.016902	0.018215	0	0.018276	0.015846	0.277721	0.013824	0.006081
2.0965	0.009925	0.004896	0.021643	0.017763	0.007571	0.026375	0.007133	0.044966	0.016821	0.01833	0	0.018293	0.015975	0.278153	0.013814	0.006025
2.097	0.009838	0.004883	0.021646	0.017778	0.007561	0.026507	0.007078	0.04499	0.016744	0.018449	0	0.018309	0.016105	0.278562	0.013801	0.005969
2.0975	0.00975	0.004869	0.021647	0.017792	0.007552	0.026639	0.007023	0.04501	0.016671	0.018572	0	0.018323	0.016235	0.278948	0.013785	0.005913
2.098	0.009662	0.004855	0.021646	0.017804	0.007542	0.02677	0.006968	0.045026	0.016601	0.018698	0	0.018336	0.016366	0.279313	0.013766	0.005857
2.0985	0.009573	0.004841	0.021643	0.017814	0.007533	0.026901	0.006913	0.045039	0.016535	0.018828	0	0.018347	0.016498	0.279656	0.013744	0.005801
2.099	0.009483	0.004826	0.021639	0.017823	0.007523	0.027032	0.006858	0.045047	0.016472	0.018962	0	0.018357	0.016631	0.279979	0.013719	0.005744
2.0995	0.009392	0.00481	0.021633	0.01783	0.007513	0.027162	0.006804	0.045052	0.016413	0.019099	0	0.018366	0.016764	0.280281	0.01369	0.005687
2.1	0.0093	0.004794	0.021625	0.017836	0.007503	0.027292	0.006749	0.045053	0.016356	0.019239	0	0.018373	0.016897	0.280564	0.013659	0.005629
2.1005	0.009208	0.004778	0.021615	0.01784	0.007494	0.027421	0.006694	0.045051	0.016303	0.019382	0	0.018379	0.017032	0.280827	0.013624	0.005572
2.101	0.009115	0.004761	0.021604	0.017842	0.007484	0.027551	0.00664	0.045045	0.016253	0.019528	0	0.018383	0.017166	0.281071	0.013585	0.005515
2.1015	0.009022	0.004744	0.021592	0.017844	0.007474	0.027679	0.006586	0.045036	0.016205	0.019677	0	0.018386	0.017301	0.281297	0.013544	0.005457
2.102	0.008928	0.004726	0.021577	0.017843	0.007464	0.027808	0.006531	0.045023	0.016161	0.019829	0	0.018388	0.017437	0.281504	0.013499	0.005399
2.1025	0.008833	0.004707	0.021562	0.017842	0.007455	0.027936	0.006477	0.045007	0.016119	0.019983	0	0.018389	0.017573	0.281693	0.013451	0.005342
2.103	0.008737	0.004688	0.021545	0.017839	0.007445	0.028064	0.006423	0.044988	0.01608	0.020139	0	0.018389	0.017709	0.281864	0.0134	0.005284
2.1035	0.008641	0.004668	0.021526	0.017835	0.007436	0.028192	0.006369	0.044965	0.016043	0.020298	0	0.018387	0.017845	0.282016	0.013345	0.005226
2.104	0.008544	0.004648	0.021506	0.017829	0.007426	0.02832	0.006315	0.044939	0.016008	0.020459	0	0.018385	0.017981	0.28215	0.013287	0.005168
2.1045	0.008447	0.004627	0.021485	0.017822	0.007417	0.028448	0.006261	0.04491	0.015976	0.020622	0	0.018381	0.018118	0.282266	0.013226	0.005111
2.105	0.008349	0.004605	0.021463	0.017814	0.007408	0.028576	0.006207	0.044877	0.015946	0.020786	0	0.018377	0.018254	0.282363	0.013161	0.005053
2.1055	0.008251	0.004583	0.021439	0.017804	0.007399	0.028704	0.006153	0.044841	0.015919	0.020953	0	0.018372	0.018391	0.282441	0.013094	0.004995
2.106	0.008152	0.00456	0.021413	0.017793	0.007391	0.028833	0.006099	0.044802	0.015893	0.02112	0	0.018365	0.018527	0.2825	0.013023	0.004938
2.1065	0.008053	0.004537	0.021387	0.017781	0.007382	0.028961	0.006046	0.044759	0.015869	0.021289	0	0.018358	0.018663	0.28254	0.012948	0.00488
2.107	0.007953	0.004513	0.021359	0.017768	0.007374	0.02909	0.005993	0.044713	0.015847	0.02146	0	0.01835	0.018799	0.28256	0.012871	0.004823
2.1075	0.007854	0.004488	0.02133	0.017753	0.007366	0.029219	0.005939	0.044664	0.015827	0.021631	0	0.018341	0.018934	0.28256	0.01279	0.004765
2.108	0.007754	0.004463	0.021299	0.017736	0.007358	0.029349	0.005886	0.044611	0.015809	0.021804	0	0.018332	0.019069	0.28254	0.012707	0.004708
2.1085	0.007654	0.004437	0.021267	0.017719	0.007351	0.029479	0.005833	0.044555	0.015792	0.021977	0	0.018322	0.019203	0.282498	0.01262	0.004651
2.109	0.007554	0.004411	0.021234	0.0177	0.007343	0.02961	0.005781	0.044495	0.015776	0.02215	0	0.018311	0.019336	0.282435	0.01253	0.004594
2.1095	0.007453	0.004384	0.0212	0.01768	0.007337	0.029741	0.005728	0.044432	0.015763	0.022325	0	0.018299	0.019469	0.28235	0.012438	0.004537
2.11	0.007353	0.004356	0.021164	0.017658	0.00733	0.029873	0.005676	0.044366	0.01575	0.022499	0	0.018287	0.019602	0.282243	0.012343	0.004481
2.1105	0.007253	0.004328	0.021127	0.017635	0.007324	0.030006	0.005624	0.044296	0.015738	0.022674	0	0.018274	0.019733	0.282112	0.012245	0.004425
2.111	0.007153	0.004299	0.021088	0.01761	0.007318	0.03014	0.005573	0.044222	0.015728	0.022849	0	0.01826	0.019864	0.281958	0.012145	0.004369
2.1115	0.007053	0.004269	0.021048	0.017584	0.007312	0.030275	0.005521	0.044144	0.015718	0.023023	0	0.018246	0.019993	0.28178	0.012042	0.004313
2.112	0.006954	0.004239	0.021006	0.017556	0.007307	0.030412	0.005471	0.044062	0.01571	0.023198	0	0.018231	0.020122	0.281577	0.011937	0.004258
2.1125	0.006855	0.004208	0.020963	0.017526	0.007302	0.030549	0.00542	0.043976	0.015702	0.023371	0	0.018215	0.02025	0.281348	0.01183	0.004203
2.113	0.006756	0.004177	0.020918	0.017495	0.007297	0.030687	0.00537	0.043886	0.015694	0.023544	0	0.018199	0.020376	0.281094	0.011721	0.004148
2.1135	0.006658	0.004145	0.020872	0.017462	0.007293	0.030827	0.00532	0.043792	0.015687	0.023717	0	0.018182	0.020501	0.280812	0.01161	0.004094
2.114	0.00656	0.004113	0.020824	0.017428	0.007289	0.030968	0.005271	0.043694	0.015681	0.023888	0	0.018165	0.020625	0.280503	0.011497	0.00404
2.1145	0.006463	0.00408	0.020774	0.017392	0.007286	0.031111	0.005222	0.043591	0.015675	0.024058	0	0.018146	0.020748	0.280166	0.011383	0.003987
2.115	0.006367	0.004047	0.020722	0.017354	0.007282	0.031255	0.005174	0.043484	0.015668	0.024226	0	0.018127	0.020869	0.279799	0.011266	0.003934
2.1155	0.006271	0.004013	0.020669	0.017314	0.00728	0.031401	0.005127	0.043371	0.015662	0.024393	0	0.018107	0.020988	0.279403	0.011148	0.003882
2.116	0.006176	0.003978	0.020613	0.017272	0.007278	0.031548	0.00508	0.043255	0.015655	0.024559	0	0.018087	0.021106	0.278976	0.011029	0.00383
2.1165	0.006082	0.003944	0.020556	0.017228	0.007276	0.031697	0.005033	0.043133	0.015649	0.024722	0	0.018065	0.021223	0.278518	0.010909	0.003779
2.117	0.005989	0.003908	0.020496	0.017182	0.007274	0.031848	0.004987	0.043006	0.015641	0.024882	0	0.018043	0.021337	0.278028	0.010787	0.003728
2.1175	0.005897	0.003873	0.020435	0.017134	0.007273	0.032001	0.004942	0.042874	0.015634	0.025041	0	0.01802	0.02145	0.277506	0.010664	0.003678
2.118	0.005806	0.003837	0.020372	0.017084	0.007273	0.032156	0.004897	0.042737	0.015625	0.025197	0	0.017996	0.021561	0.27695	0.010541	0.003629
2.1185	0.005716	0.0038	0.020307	0.017032	0.007273	0.032312	0.004853	0.042594	0.015616	0.025349	0	0.017972	0.02167	0.27636	0.010416	0.00358
2.119	0.005627	0.003763	0.02024	0.016978	0.007273	0.032471	0.00481	0.042446	0.015606	0.025499	0	0.017946	0.021777	0.275736	0.010291	0.003532
2.1195	0.00554	0.003726	0.020171	0.016922	0.007274	0.032632	0.004767	0.042293	0.015595	0.025645	0	0.01792	0.021882	0.275076	0.010165	0.003484
2.12	0.005453	0.003688	0.020099	0.016864	0.007275	0.032794	0.004725	0.042134	0.015582	0.025787	0	0.017893	0.021984	0.274381	0.010039	0.003438
2.1205	0.005368	0.00365	0.020027	0.016803	0.007277	0.032959	0.004684	0.04197	0.015569	0.025926	0	0.017865	0.022084	0.27365	0.009912	0.003392
2.121	0.005285	0.003612	0.019952	0.016741	0.007279	0.033126	0.004643	0.041801	0.015554	0.02606	0	0.017836	0.022182	0.272883	0.009785	0.003346
2.1215	0.005203	0.003573	0.019875	0.016677	0.007282	0.033295	0.004603	0.041626	0.015538	0.026189	0	0.017807	0.022277	0.272079	0.009658	0.003302
2.122	0.005122	0.003534	0.019796	0.016611	0.007285	0.033466	0.004564	0.041446	0.01552	0.026314	0	0.017777	0.02237	0.271237	0.009531	0.003258
2.1225	0.005044	0.003495	0.019716	0.016543	0.007289	0.033639	0.004526	0.041261	0.015501	0.026434	0	0.017746	0.02246	0.270359	0.009403	0.003215
2.123	0.004966	0.003456	0.019634	0.016473	0.007293	0.033814	0.004488	0.041071	0.01548	0.026549	0	0.017714	0.022547	0.269443	0.009276	0.003173
2.1235	0.004891	0.003417	0.01955	0.016402	0.007297	0.033991	0.004451	0.040876	0.015457	0.026658	0	0.017681	0.022631	0.268489	0.009149	0.003131
2.124	0.004817	0.003377	0.019465	0.016328	0.007302	0.03417	0.004415	0.040676	0.015432	0.026762	0	0.017648	0.022712	0.267498	0.009023	0.003091
2.1245	0.004745	0.003337	0.019378	0.016253	0.007308	0.03435	0.00438	0.040471	0.015405	0.026859	0	0.017614	0.02279	0.266467	0.008897	0.003051
2.125	0.004675	0.003297	0.019289	0.016176	0.007313	0.034533	0.004345	0.040261	0.015376	0.026951	0	0.017579	0.022865	0.265399	0.008771	0.003012
2.1255	0.004607	0.003257	0.019199	0.016097	0.007319	0.034717	0.004312	0.040047	0.015345	0.027036	0	0.017544	0.022937	0.264292	0.008646	0.002975
2.126	0.004541	0.003217	0.019108	0.016017	0.007326	0.034903	0.004279	0.039829	0.015312	0.027115	0	0.017507	0.023005	0.263147	0.008522	0.002938
2.1265	0.004476	0.003177	0.019015	0.015935	0.007333	0.03509	0.004247	0.039606	0.015276	0.027187	0	0.01747	0.02307	0.261963	0.008398	0.002901
2.127	0.004414	0.003137	0.01892	0.015851	0.00734	0.035279	0.004215	0.03938	0.015238	0.027253	0	0.017432	0.023131	0.260742	0.008275	0.002866
2.1275	0.004355	0.003097	0.018824	0.015765	0.007348	0.035469	0.004185	0.039149	0.015198	0.027311	0	0.017394	0.023189	0.259484	0.008153	0.002832
2.128	0.004297	0.003058	0.018727	0.015678	0.007356	0.03566	0.004155	0.038914	0.015155	0.027363	0	0.017354	0.023242	0.258188	0.008032	0.002799
2.1285	0.004242	0.003018	0.018628	0.015589	0.007364	0.035853	0.004126	0.038676	0.01511	0.027407	0	0.017314	0.023292	0.256855	0.007913	0.002767
2.129	0.004189	0.002978	0.018528	0.015499	0.007373	0.036046	0.004098	0.038435	0.015061	0.027445	0	0.017273	0.023338	0.255485	0.007794	0.002735
2.1295	0.004138	0.002939	0.018426	0.015407	0.007382	0.036241	0.004071	0.03819	0.015011	0.027474	0	0.017231	0.02338	0.254078	0.007677	0.002705
2.13	0.00409	0.0029	0.018323	0.015314	0.007391	0.036436	0.004044	0.037942	0.014957	0.027496	0	0.017188	0.023418	0.252635	0.007561	0.002676
2.1305	0.004045	0.002861	0.018218	0.015219	0.0074	0.036631	0.004019	0.03769	0.014901	0.027511	0	0.017144	0.023452	0.251154	0.007446	0.002648
2.131	0.004002	0.002822	0.018113	0.015122	0.00741	0.036827	0.003994	0.037436	0.014843	0.027517	0	0.017099	0.023481	0.249638	0.007333	0.00262
2.1315	0.003962	0.002784	0.018005	0.015024	0.00742	0.037023	0.00397	0.037178	0.014782	0.027516	0	0.017053	0.023506	0.248085	0.007222	0.002594
2.132	0.003925	0.002746	0.017897	0.014924	0.007431	0.037219	0.003947	0.036918	0.014718	0.027506	0	0.017005	0.023527	0.246496	0.007112	0.002569
2.1325	0.00389	0.002708	0.017787	0.014823	0.007441	0.037416	0.003924	0.036655	0.014652	0.027489	0	0.016957	0.023543	0.244871	0.007003	0.002545
2.133	0.003858	0.002671	0.017675	0.01472	0.007452	0.037611	0.003903	0.036389	0.014584	0.027463	0	0.016907	0.023554	0.24321	0.006897	0.002522
2.1335	0.00383	0.002635	0.017563	0.014616	0.007463	0.037806	0.003882	0.036121	0.014513	0.027429	0	0.016856	0.02356	0.241512	0.006792	0.0025
2.134	0.003804	0.002599	0.017449	0.014511	0.007474	0.038001	0.003862	0.03585	0.01444	0.027388	0	0.016803	0.023562	0.23978	0.006689	0.002479
2.1345	0.003781	0.002564	0.017333	0.014404	0.007486	0.038194	0.003843	0.035577	0.014365	0.027338	0	0.016749	0.023558	0.238011	0.006588	0.002459
2.135	0.003762	0.002529	0.017217	0.014296	0.007497	0.038387	0.003825	0.035301	0.014287	0.02728	0	0.016694	0.02355	0.236207	0.006489	0.00244
2.1355	0.003745	0.002495	0.017099	0.014186	0.007509	0.038578	0.003808	0.035024	0.014208	0.027215	0	0.016637	0.023537	0.234367	0.006392	0.002422
2.136	0.003732	0.002461	0.016979	0.014076	0.007521	0.038767	0.003792	0.034744	0.014126	0.027142	0	0.016578	0.023518	0.232492	0.006298	0.002405
2.1365	0.003723	0.002429	0.016859	0.013964	0.007533	0.038955	0.003777	0.034462	0.014042	0.027062	0	0.016518	0.023495	0.230581	0.006205	0.00239
2.137	0.003717	0.002397	0.016737	0.01385	0.007546	0.039141	0.003762	0.034178	0.013956	0.026974	0	0.016456	0.023466	0.228635	0.006114	0.002375
2.1375	0.003714	0.002366	0.016614	0.013735	0.007558	0.039324	0.003749	0.033892	0.013869	0.026879	0	0.016392	0.023432	0.226654	0.006026	0.002361
2.138	0.003715	0.002336	0.016489	0.01362	0.007571	0.039506	0.003736	0.033604	0.01378	0.026777	0	0.016327	0.023394	0.224639	0.00594	0.002349
2.1385	0.00372	0.002307	0.016364	0.013503	0.007583	0.039685	0.003725	0.033315	0.013689	0.026667	0	0.016259	0.023349	0.22259	0.005857	0.002338
2.139	0.003728	0.002279	0.016237	0.013384	0.007596	0.039861	0.003714	0.033023	0.013596	0.026551	0	0.01619	0.0233	0.220507	0.005775	0.002327
2.1395	0.00374	0.002252	0.016109	0.013265	0.007609	0.040035	0.003704	0.03273	0.013502	0.026428	0	0.016118	0.023246	0.218393	0.005696	0.002318
2.14	0.003757	0.002226	0.015979	0.013144	0.007622	0.040205	0.003696	0.032435	0.013407	0.026299	0	0.016045	0.023186	0.216246	0.00562	0.00231
2.1405	0.003777	0.002202	0.015849	0.013023	0.007635	0.040372	0.003688	0.032138	0.013311	0.026163	0	0.015969	0.023121	0.214068	0.005546	0.002303
2.141	0.003801	0.002178	0.015717	0.0129	0.007649	0.040536	0.003681	0.03184	0.013213	0.026021	0	0.015892	0.023051	0.21186	0.005475	0.002297
2.1415	0.003829	0.002156	0.015584	0.012776	0.007662	0.040697	0.003675	0.03154	0.013114	0.025873	0	0.015812	0.022975	0.209622	0.005406	0.002293
2.142	0.003862	0.002134	0.015449	0.012652	0.007675	0.040854	0.00367	0.031238	0.013015	0.025718	0	0.01573	0.022894	0.207355	0.00534	0.002289
2.1425	0.003899	0.002115	0.015314	0.012526	0.007688	0.041007	0.003666	0.030935	0.012914	0.025559	0	0.015645	0.022809	0.205059	0.005276	0.002286
2.143	0.00394	0.002096	0.015177	0.012399	0.007701	0.041157	0.003664	0.030631	0.012812	0.025393	0	0.015559	0.022718	0.202737	0.005215	0.002285
2.1435	0.003986	0.002079	0.01504	0.012272	0.007715	0.041302	0.003662	0.030325	0.01271	0.025223	0	0.01547	0.022622	0.200389	0.005157	0.002285
2.144	0.004036	0.002064	0.014901	0.012143	0.007728	0.041445	0.003661	0.030017	0.012608	0.025047	0	0.015379	0.022522	0.198017	0.005101	0.002285
2.1445	0.004091	0.002049	0.014762	0.012014	0.007741	0.041583	0.003661	0.029709	0.012504	0.024867	0	0.015286	0.022417	0.195621	0.005049	0.002287
2.145	0.004151	0.002037	0.014621	0.011885	0.007754	0.041717	0.003662	0.029399	0.012401	0.024681	0	0.015191	0.022307	0.193203	0.004999	0.00229
2.1455	0.004216	0.002026	0.01448	0.011754	0.007766	0.041847	0.003664	0.029087	0.012297	0.024492	0	0.015094	0.022193	0.190763	0.004951	0.002294
2.146	0.004286	0.002016	0.014337	0.011623	0.007779	0.041974	0.003667	0.028775	0.012192	0.024298	0	0.014994	0.022074	0.188305	0.004907	0.002299
2.1465	0.00436	0.002009	0.014194	0.011491	0.007792	0.042096	0.003671	0.02846	0.012088	0.024101	0	0.014893	0.021952	0.185827	0.004866	0.002306
2.147	0.00444	0.002003	0.01405	0.011359	0.007804	0.042214	0.003676	0.028145	0.011983	0.023899	0	0.014789	0.021825	0.183333	0.004827	0.002313
2.1475	0.004525	0.001998	0.013906	0.011227	0.007816	0.042328	0.003682	0.027828	0.011879	0.023694	0	0.014684	0.021695	0.180823	0.004792	0.002321
2.148	0.004615	0.001996	0.013761	0.011094	0.007828	0.042438	0.003689	0.02751	0.011774	0.023486	0	0.014576	0.021561	0.178298	0.004759	0.002331
2.1485	0.004711	0.001995	0.013615	0.01096	0.00784	0.042544	0.003696	0.027191	0.01167	0.023275	0	0.014466	0.021424	0.17576	0.004729	0.002341
2.149	0.004813	0.001996	0.013468	0.010826	0.007852	0.042646	0.003705	0.026871	0.011565	0.023061	0	0.014354	0.021283	0.17321	0.004702	0.002353
2.1495	0.00492	0.002	0.013321	0.010692	0.007864	0.042744	0.003715	0.026549	0.011461	0.022844	0	0.014241	0.02114	0.170651	0.004679	0.002366
2.15	0.005033	0.002005	0.013174	0.010558	0.007875	0.042839	0.003725	0.026226	0.011358	0.022625	0	0.014125	0.020993	0.168082	0.004658	0.002379
2.1505	0.005151	0.002012	0.013025	0.010424	0.007886	0.042929	0.003737	0.025903	0.011255	0.022403	0	0.014007	0.020843	0.165507	0.00464	0.002394
2.151	0.005276	0.002021	0.012877	0.010289	0.007897	0.043016	0.00375	0.025578	0.011152	0.022179	0	0.013888	0.02069	0.162926	0.004625	0.00241
2.1515	0.005407	0.002032	0.012728	0.010154	0.007907	0.043099	0.003763	0.025253	0.01105	0.021953	0	0.013766	0.020535	0.160341	0.004614	0.002427
2.152	0.005544	0.002046	0.012579	0.01002	0.007917	0.043179	0.003777	0.024927	0.010949	0.021726	0	0.013643	0.020378	0.157753	0.004605	0.002445
2.1525	0.005687	0.002062	0.01243	0.009885	0.007927	0.043255	0.003793	0.024601	0.010848	0.021497	0	0.013519	0.020219	0.155165	0.0046	0.002464
2.153	0.005837	0.00208	0.012281	0.00975	0.007937	0.043329	0.003809	0.024275	0.010748	0.021266	0	0.013393	0.020057	0.152576	0.004597	0.002484
2.1535	0.005994	0.0021	0.012132	0.009616	0.007946	0.043399	0.003826	0.023949	0.010649	0.021034	0	0.013265	0.019893	0.14999	0.004598	0.002505
2.154	0.006157	0.002122	0.011982	0.009482	0.007955	0.043466	0.003844	0.023623	0.010551	0.020801	0	0.013136	0.019728	0.147406	0.004602	0.002527
2.1545	0.006327	0.002147	0.011833	0.009348	0.007964	0.04353	0.003863	0.023297	0.010454	0.020567	6.7e-05	0.013006	0.019561	0.144827	0.004609	0.00255
2.155	0.006504	0.002175	0.011685	0.009214	0.007972	0.043591	0.003883	0.022972	0.010358	0.020332	0.000519	0.012875	0.019393	0.142253	0.004619	0.002574
2.1555	0.006689	0.002204	0.011536	0.009081	0.007979	0.04365	0.003904	0.022648	0.010263	0.020097	0.000988	0.012742	0.019223	0.139685	0.004632	0.0026
2.156	0.00688	0.002237	0.011388	0.008948	0.007987	0.043706	0.003925	0.022324	0.010169	0.019861	0.001474	0.012609	0.019053	0.137126	0.004649	0.002626
2.1565	0.007079	0.002272	0.01124	0.008816	0.007993	0.043759	0.003948	0.022002	0.010076	0.019625	0.001978	0.012475	0.018881	0.134576	0.004668	0.002653
2.157	0.007286	0.002309	0.011093	0.008684	0.007999	0.043809	0.003971	0.02168	0.009985	0.019388	0.002499	0.01234	0.018708	0.132037	0.004691	0.002681
2.1575	0.0075	0.002349	0.010947	0.008553	0.008005	0.043857	0.003995	0.02136	0.009894	0.019151	0.003038	0.012204	0.018534	0.129508	0.004717	0.00271
2.158	0.007722	0.002392	0.010801	0.008422	0.00801	0.043903	0.00402	0.021041	0.009805	0.018915	0.003595	0.012067	0.018359	0.126993	0.004746	0.00274
2.1585	0.007951	0.002438	0.010656	0.008292	0.008015	0.043946	0.004046	0.020724	0.009718	0.018679	0.004171	0.01193	0.018184	0.12449	0.004778	0.002771
2.159	0.008189	0.002486	0.010512	0.008163	0.008019	0.043987	0.004073	0.020408	0.009632	0.018443	0.004766	0.011793	0.018008	0.122003	0.004814	0.002803
2.1595	0.008435	0.002537	0.010368	0.008035	0.008023	0.044026	0.0041	0.020095	0.009547	0.018207	0.00538	0.011655	0.017832	0.11953	0.004853	0.002835
2.16	0.00869	0.002591	0.010226	0.007907	0.008026	0.044063	0.004129	0.019783	0.009464	0.017973	0.006014	0.011516	0.017655	0.117074	0.004894	0.002869
2.1605	0.008953	0.002649	0.010084	0.00778	0.008028	0.044098	0.004158	0.019473	0.009382	0.017738	0.006667	0.011378	0.017478	0.114636	0.00494	0.002903
2.161	0.009224	0.002709	0.009944	0.007654	0.00803	0.044131	0.004188	0.019166	0.009302	0.017505	0.00734	0.011239	0.017301	0.112215	0.004988	0.002939
2.1615	0.009505	0.002772	0.009805	0.007529	0.008031	0.044163	0.004219	0.018861	0.009223	0.017273	0.008034	0.0111	0.017124	0.109814	0.005039	0.002975
2.162	0.009794	0.002838	0.009666	0.007405	0.008032	0.044192	0.004251	0.018558	0.009146	0.017042	0.008748	0.010961	0.016946	0.107432	0.005094	0.003012
2.1625	0.010093	0.002907	0.009529	0.007282	0.008032	0.044221	0.004284	0.018258	0.009071	0.016812	0.009483	0.010822	0.016769	0.105071	0.005151	0.00305
2.163	0.0104	0.002979	0.009393	0.00716	0.008031	0.044248	0.004317	0.017961	0.008997	0.016583	0.010239	0.010683	0.016592	0.102731	0.005212	0.003089
2.1635	0.010717	0.003055	0.009259	0.00704	0.00803	0.044273	0.004352	0.017666	0.008925	0.016355	0.011016	0.010544	0.016414	0.100414	0.005276	0.003129
2.164	0.011043	0.003134	0.009126	0.00692	0.008028	0.044297	0.004387	0.017374	0.008855	0.016129	0.011815	0.010406	0.016238	0.098119	0.005343	0.003169
2.1645	0.011379	0.003216	0.008994	0.006801	0.008026	0.04432	0.004423	0.017086	0.008786	0.015905	0.012637	0.010268	0.016061	0.095847	0.005413	0.00321
2.165	0.011725	0.003302	0.008863	0.006684	0.008023	0.044342	0.00446	0.0168	0.008719	0.015682	0.01348	0.010131	0.015885	0.093599	0.005487	0.003252
2.1655	0.012081	0.003391	0.008734	0.006567	0.008019	0.044363	0.004497	0.016517	0.008654	0.015461	0.014346	0.009994	0.01571	0.091376	0.005563	0.003295
2.166	0.012447	0.003483	0.008607	0.006452	0.008015	0.044383	0.004536	0.016238	0.00859	0.015241	0.015235	0.009858	0.015535	0.089179	0.005643	0.003338
2.1665	0.012823	0.003579	0.008481	0.006338	0.008011	0.044402	0.004575	0.015962	0.008528	0.015024	0.016147	0.009722	0.01536	0.087007	0.005725	0.003382
2.167	0.013209	0.003678	0.008356	0.006226	0.008005	0.04442	0.004615	0.01569	0.008468	0.014808	0.017082	0.009587	0.015187	0.084861	0.005811	0.003427
2.1675	0.013606	0.003781	0.008233	0.006115	0.008	0.044437	0.004656	0.015421	0.00841	0.014594	0.018041	0.009453	0.015014	0.082742	0.005899	0.003472
2.168	0.014013	0.003888	0.008112	0.006005	0.007993	0.044453	0.004697	0.015155	0.008353	0.014382	0.019023	0.00932	0.014842	0.080651	0.005991	0.003518
2.1685	0.014431	0.003998	0.007992	0.005896	0.007986	0.044468	0.00474	0.014894	0.008299	0.014173	0.020029	0.009188	0.014671	0.078587	0.006085	0.003564
2.169	0.01486	0.004112	0.007874	0.005789	0.007979	0.044483	0.004783	0.014636	0.008245	0.013965	0.02106	0.009056	0.014502	0.076551	0.006183	0.003612
2.1695	0.0153	0.00423	0.007758	0.005683	0.007971	0.044496	0.004827	0.014381	0.008194	0.01376	0.022115	0.008926	0.014333	0.074544	0.006283	0.003659
2.17	0.015751	0.004351	0.007643	0.005579	0.007962	0.044509	0.004872	0.014131	0.008144	0.013556	0.023195	0.008797	0.014166	0.072566	0.006387	0.003707
2.1705	0.016213	0.004477	0.00753	0.005476	0.007953	0.044521	0.004917	0.013884	0.008096	0.013356	0.0243	0.008668	0.014	0.070617	0.006493	0.003756
2.171	0.016686	0.004606	0.007419	0.005375	0.007944	0.044531	0.004963	0.013641	0.00805	0.013157	0.02543	0.008542	0.013835	0.068698	0.006602	0.003805
2.1715	0.017171	0.004739	0.00731	0.005275	0.007933	0.044541	0.00501	0.013402	0.008006	0.012961	0.026585	0.008416	0.013672	0.066809	0.006714	0.003855
2.172	0.017667	0.004876	0.007202	0.005176	0.007923	0.04455	0.005058	0.013167	0.007963	0.012767	0.027766	0.008291	0.01351	0.06495	0.006829	0.003905
2.1725	0.018175	0.005017	0.007096	0.00508	0.007912	0.044558	0.005106	0.012936	0.007922	0.012576	0.028973	0.008168	0.01335	0.063122	0.006946	0.003955
2.173	0.018695	0.005162	0.006992	0.004984	0.0079	0.044564	0.005155	0.012709	0.007882	0.012387	0.030205	0.008046	0.013192	0.061325	0.007067	0.004006
2.1735	0.019226	0.005312	0.006889	0.00489	0.007888	0.04457	0.005205	0.012487	0.007844	0.0122	0.031464	0.007926	0.013035	0.059558	0.00719	0.004057
2.174	0.01977	0.005465	0.006789	0.004798	0.007876	0.044574	0.005255	0.012268	0.007808	0.012016	0.032748	0.007807	0.01288	0.057824	0.007316	0.004108
2.1745	0.020325	0.005622	0.00669	0.004707	0.007864	0.044577	0.005307	0.012053	0.007773	0.011834	0.03406	0.007689	0.012727	0.05612	0.007444	0.00416
2.175	0.020892	0.005784	0.006593	0.004618	0.00785	0.044579	0.005358	0.011843	0.00774	0.011655	0.035397	0.007573	0.012576	0.054449	0.007575	0.004212
2.1755	0.021472	0.005949	0.006498	0.00453	0.007837	0.044579	0.005411	0.011636	0.007708	0.011479	0.036762	0.007458	0.012427	0.052809	0.007709	0.004264
2.176	0.022064	0.006119	0.006404	0.004444	0.007823	0.044578	0.005464	0.011434	0.007678	0.011305	0.038153	0.007345	0.012279	0.051202	0.007845	0.004316
2.1765	0.022668	0.006293	0.006313	0.00436	0.00781	0.044575	0.005518	0.011236	0.00765	0.011133	0.039571	0.007234	0.012134	0.049626	0.007984	0.004369
2.177	0.023285	0.006472	0.006223	0.004277	0.007795	0.044571	0.005573	0.011042	0.007622	0.010965	0.041017	0.007124	0.011991	0.048083	0.008126	0.004421
2.1775	0.023914	0.006654	0.006135	0.004196	0.007781	0.044565	0.005628	0.010852	0.007597	0.010798	0.042489	0.007015	0.011849	0.046573	0.00827	0.004474
2.178	0.024555	0.006841	0.006049	0.004117	0.007766	0.044558	0.005684	0.010666	0.007572	0.010634	0.043989	0.006908	0.01171	0.045095	0.008416	0.004526
2.1785	0.025209	0.007032	0.005964	0.004039	0.007751	0.044549	0.005741	0.010485	0.007549	0.010473	0.045516	0.006803	0.011573	0.04365	0.008565	0.004579
2.179	0.025876	0.007228	0.005882	0.003962	0.007736	0.044538	0.005799	0.010307	0.007528	0.010315	0.04707	0.006699	0.011438	0.042238	0.008716	0.004631
2.1795	0.026555	0.007428	0.005801	0.003887	0.007721	0.044526	0.005857	0.010134	0.007507	0.010158	0.048652	0.006598	0.011305	0.040859	0.00887	0.004684
2.18	0.027247	0.007632	0.005722	0.003814	0.007705	0.044512	0.005915	0.009965	0.007488	0.010005	0.050261	0.006497	0.011175	0.039512	0.009026	0.004736
2.1805	0.027951	0.007841	0.005644	0.003743	0.007689	0.044496	0.005975	0.009801	0.00747	0.009854	0.051897	0.006399	0.011047	0.038199	0.009184	0.004788
2.181	0.028669	0.008054	0.005569	0.003673	0.007673	0.044479	0.006035	0.00964	0.007454	0.009705	0.053561	0.006302	0.010921	0.036918	0.009344	0.00484
2.1815	0.029398	0.008271	0.005495	0.003605	0.007657	0.044459	0.006095	0.009484	0.007438	0.009559	0.055253	0.006207	0.010797	0.035671	0.009506	0.004892
2.182	0.030141	0.008493	0.005423	0.003538	0.007641	0.044438	0.006157	0.009332	0.007424	0.009416	0.056972	0.006113	0.010675	0.034456	0.009671	0.004943
2.1825	0.030896	0.008719	0.005353	0.003473	0.007625	0.044415	0.006219	0.009184	0.007411	0.009275	0.058718	0.006022	0.010556	0.033275	0.009837	0.004995
2.183	0.031664	0.00895	0.005285	0.00341	0.007608	0.044389	0.006281	0.00904	0.007399	0.009136	0.060492	0.005932	0.010439	0.032126	0.010006	0.005045
2.1835	0.032445	0.009185	0.005218	0.003348	0.007591	0.044362	0.006344	0.0089	0.007388	0.009	0.062293	0.005844	0.010324	0.031011	0.010176	0.005096
2.184	0.033238	0.009425	0.005153	0.003288	0.007575	0.044333	0.006408	0.008765	0.007378	0.008866	0.064121	0.005757	0.010212	0.029928	0.010349	0.005145
2.1845	0.034044	0.009669	0.00509	0.003229	0.007558	0.044302	0.006473	0.008633	0.00737	0.008735	0.065976	0.005673	0.010102	0.028879	0.010523	0.005195
2.185	0.034863	0.009917	0.005028	0.003172	0.007541	0.044269	0.006537	0.008506	0.007362	0.008606	0.067858	0.00559	0.009994	0.027862	0.0107	0.005244
2.1855	0.035694	0.01017	0.004969	0.003117	0.007524	0.044234	0.006603	0.008382	0.007355	0.008479	0.069767	0.005509	0.009889	0.026879	0.010878	0.005292
2.186	0.036537	0.010428	0.004911	0.003063	0.007507	0.044197	0.006669	0.008263	0.00735	0.008355	0.071703	0.005429	0.009786	0.025928	0.011058	0.00534
2.1865	0.037393	0.010689	0.004854	0.003011	0.00749	0.044158	0.006736	0.008148	0.007345	0.008233	0.073665	0.005352	0.009685	0.02501	0.011239	0.005387
2.187	0.038261	0.010956	0.004799	0.00296	0.007472	0.044118	0.006803	0.008037	0.007341	0.008114	0.075654	0.005276	0.009586	0.024125	0.011423	0.005433
2.1875	0.039142	0.011226	0.004746	0.002911	0.007455	0.044075	0.00687	0.007929	0.007338	0.007996	0.077669	0.005201	0.00949	0.023272	0.011608	0.005479
2.188	0.040035	0.011501	0.004695	0.002863	0.007437	0.04403	0.006939	0.007826	0.007336	0.007881	0.079709	0.005129	0.009396	0.022452	0.011794	0.005524
2.1885	0.040939	0.011781	0.004645	0.002817	0.00742	0.043983	0.007007	0.007726	0.007335	0.007768	0.081776	0.005058	0.009304	0.021664	0.011982	0.005568
2.189	0.041856	0.012065	0.004597	0.002773	0.007402	0.043934	0.007076	0.007631	0.007335	0.007658	0.083867	0.004989	0.009214	0.020909	0.012171	0.005611
2.1895	0.042785	0.012353	0.00455	0.00273	0.007385	0.043882	0.007146	0.007539	0.007336	0.007549	0.085984	0.004922	0.009127	0.020185	0.012361	0.005654
2.19	0.043725	0.012645	0.004505	0.002689	0.007367	0.043829	0.007216	0.007451	0.007337	0.007443	0.088126	0.004857	0.009042	0.019494	0.012553	0.005696
2.1905	0.044677	0.012942	0.004462	0.002649	0.007349	0.043773	0.007287	0.007367	0.007339	0.007339	0.090292	0.004793	0.008959	0.018835	0.012746	0.005737
2.191	0.04564	0.013243	0.00442	0.00261	0.007331	0.043716	0.007358	0.007287	0.007342	0.007237	0.092482	0.004731	0.008879	0.018208	0.01294	0.005777
2.1915	0.046615	0.013548	0.00438	0.002574	0.007314	0.043656	0.007429	0.007211	0.007345	0.007137	0.094696	0.00467	0.0088	0.017613	0.013135	0.005816
2.192	0.047601	0.013858	0.004341	0.002538	0.007296	0.043595	0.007501	0.007138	0.007349	0.007039	0.096933	0.004612	0.008724	0.017049	0.013332	0.005854
2.1925	0.048597	0.014171	0.004304	0.002504	0.007278	0.043531	0.007573	0.007069	0.007354	0.006943	0.099193	0.004555	0.00865	0.016517	0.013529	0.005892
2.193	0.049605	0.014489	0.004268	0.002472	0.00726	0.043466	0.007646	0.007004	0.00736	0.006849	0.101475	0.004499	0.008578	0.016017	0.013727	0.005928
2.1935	0.050622	0.014811	0.004234	0.002441	0.007242	0.043399	0.007719	0.006942	0.007366	0.006757	0.10378	0.004445	0.008509	0.015547	0.013926	0.005963
2.194	0.05165	0.015137	0.004201	0.002412	0.007224	0.043331	0.007792	0.006884	0.007373	0.006667	0.106106	0.004393	0.008441	0.015109	0.014126	0.005998
2.1945	0.052689	0.015466	0.00417	0.002384	0.007206	0.043261	0.007865	0.00683	0.00738	0.006579	0.108453	0.004343	0.008376	0.014702	0.014327	0.006031
2.195	0.053737	0.0158	0.00414	0.002357	0.007187	0.04319	0.007939	0.006779	0.007389	0.006493	0.11082	0.004294	0.008313	0.014325	0.014528	0.006064
2.1955	0.054794	0.016137	0.004112	0.002332	0.007169	0.043117	0.008013	0.006732	0.007398	0.006409	0.113207	0.004246	0.008252	0.013979	0.014731	0.006095
2.196	0.055861	0.016478	0.004085	0.002309	0.007151	0.043043	0.008087	0.006689	0.007407	0.006326	0.115613	0.0042	0.008193	0.013664	0.014933	0.006125
2.1965	0.056937	0.016823	0.00406	0.002286	0.007132	0.042969	0.008161	0.006649	0.007417	0.006246	0.118037	0.004156	0.008137	0.013379	0.015137	0.006155
2.197	0.058021	0.017172	0.004036	0.002265	0.007113	0.042893	0.008235	0.006612	0.007428	0.006168	0.12048	0.004113	0.008083	0.013124	0.015341	0.006183
2.1975	0.059114	0.017524	0.004013	0.002246	0.007095	0.042816	0.00831	0.006579	0.007439	0.006091	0.12294	0.004072	0.008031	0.0129	0.015545	0.006211
2.198	0.060215	0.01788	0.003992	0.002228	0.007076	0.042739	0.008385	0.00655	0.007451	0.006016	0.125416	0.004032	0.007981	0.012705	0.01575	0.006237
2.1985	0.061324	0.018239	0.003973	0.002211	0.007057	0.042661	0.00846	0.006523	0.007464	0.005943	0.127908	0.003994	0.007934	0.01254	0.015955	0.006263
2.199	0.06244	0.018601	0.003954	0.002195	0.007038	0.042583	0.008535	0.006501	0.007477	0.005872	0.130415	0.003957	0.007888	0.012404	0.016161	0.006287
2.1995	0.063564	0.018967	0.003937	0.002181	0.007019	0.042505	0.00861	0.006481	0.007491	0.005803	0.132936	0.003922	0.007845	0.012298	0.016367	0.006311
2.2	0.064694	0.019335	0.003922	0.002168	0.007	0.042427	0.008685	0.006465	0.007505	0.005735	0.13547	0.003888	0.007805	0.01222	0.016574	0.006333
2.2005	0.06583	0.019707	0.003907	0.002157	0.00698	0.042349	0.008761	0.006452	0.00752	0.00567	0.138017	0.003856	0.007766	0.012172	0.01678	0.006355
2.201	0.066971	0.020082	0.003895	0.002147	0.006961	0.042272	0.008837	0.006443	0.007535	0.005606	0.140576	0.003825	0.00773	0.012153	0.016988	0.006376
2.2015	0.068119	0.020459	0.003883	0.002138	0.006941	0.042196	0.008912	0.006437	0.007551	0.005543	0.143147	0.003795	0.007696	0.012162	0.017195	0.006396
2.202	0.069271	0.020839	0.003873	0.00213	0.006921	0.042121	0.008988	0.006434	0.007568	0.005483	0.145727	0.003767	0.007664	0.0122	0.017402	0.006415
2.2025	0.070427	0.021222	0.003864	0.002124	0.006901	0.042047	0.009065	0.006434	0.007585	0.005424	0.148316	0.003741	0.007634	0.012266	0.01761	0.006433
2.203	0.071588	0.021607	0.003856	0.002118	0.006881	0.041974	0.009141	0.006438	0.007603	0.005367	0.150914	0.003715	0.007607	0.01236	0.017818	0.00645
2.2035	0.072751	0.021995	0.00385	0.002114	0.006861	0.041904	0.009217	0.006444	0.007621	0.005312	0.153519	0.003691	0.007581	0.012482	0.018025	0.006466
2.204	0.073918	0.022384	0.003845	0.002111	0.006841	0.041835	0.009294	0.006454	0.00764	0.005258	0.156131	0.003669	0.007558	0.012631	0.018233	0.006481
2.2045	0.075087	0.022776	0.003841	0.00211	0.00682	0.041769	0.00937	0.006467	0.007659	0.005206	0.158748	0.003647	0.007537	0.012808	0.018441	0.006496
2.205	0.076258	0.02317	0.003838	0.002109	0.006799	0.041705	0.009447	0.006483	0.007679	0.005155	0.16137	0.003628	0.007518	0.013012	0.018648	0.006509
2.2055	0.07743	0.023565	0.003837	0.00211	0.006778	0.041643	0.009524	0.006502	0.0077	0.005106	0.163996	0.003609	0.007501	0.013244	0.018855	0.006522
2.206	0.078603	0.023963	0.003837	0.002112	0.006757	0.041584	0.009601	0.006525	0.007721	0.005059	0.166625	0.003592	0.007486	0.013502	0.019063	0.006534
2.2065	0.079777	0.024361	0.003838	0.002115	0.006736	0.041528	0.009678	0.00655	0.007743	0.005013	0.169256	0.003576	0.007474	0.013787	0.01927	0.006545
2.207	0.08095	0.024762	0.003841	0.002119	0.006714	0.041475	0.009755	0.006578	0.007765	0.004969	0.171889	0.003561	0.007463	0.014098	0.019476	0.006556
2.2075	0.082124	0.025164	0.003844	0.002125	0.006693	0.041425	0.009832	0.00661	0.007788	0.004926	0.174523	0.003548	0.007454	0.014436	0.019683	0.006565
2.208	0.083296	0.025567	0.003849	0.002131	0.006671	0.041378	0.00991	0.006644	0.007811	0.004885	0.177158	0.003536	0.007448	0.014799	0.019888	0.006575
2.2085	0.084466	0.025972	0.003855	0.002138	0.006649	0.041335	0.009987	0.006681	0.007835	0.004845	0.179793	0.003525	0.007443	0.015189	0.020094	0.006583
2.209	0.085635	0.026377	0.003862	0.002147	0.006626	0.041295	0.010065	0.006721	0.007859	0.004807	0.182426	0.003515	0.007441	0.015603	0.020299	0.006591
2.2095	0.086802	0.026784	0.00387	0.002156	0.006604	0.041259	0.010142	0.006765	0.007884	0.00477	0.185059	0.003507	0.00744	0.016044	0.020504	0.006598
2.21	0.087965	0.027191	0.00388	0.002167	0.006581	0.041226	0.01022	0.006811	0.007909	0.004734	0.18769	0.0035	0.007441	0.016509	0.020708	0.006605
2.2105	0.089125	0.0276	0.00389	0.002179	0.006558	0.041198	0.010298	0.00686	0.007935	0.0047	0.190319	0.003494	0.007444	0.016999	0.020911	0.006611
2.211	0.090282	0.028009	0.003902	0.002191	0.006535	0.041173	0.010376	0.006911	0.007961	0.004667	0.192945	0.003489	0.00745	0.017514	0.021114	0.006616
2.2115	0.091435	0.028419	0.003915	0.002205	0.006512	0.041152	0.010454	0.006966	0.007988	0.004636	0.195569	0.003486	0.007457	0.018054	0.021316	0.006621
2.212	0.092583	0.028829	0.003929	0.002219	0.006489	0.041136	0.010533	0.007024	0.008015	0.004605	0.19819	0.003483	0.007466	0.018617	0.021517	0.006626
2.2125	0.093727	0.02924	0.003944	0.002235	0.006465	0.041123	0.010611	0.007084	0.008043	0.004576	0.200809	0.003482	0.007477	0.019204	0.021718	0.00663
2.213	0.094867	0.029652	0.00396	0.002251	0.006442	0.041115	0.01069	0.007147	0.008071	0.004549	0.203425	0.003482	0.00749	0.019815	0.021917	0.006633
2.2135	0.096002	0.030064	0.003977	0.002268	0.006418	0.041111	0.010769	0.007213	0.008099	0.004522	0.206038	0.003483	0.007504	0.02045	0.022115	0.006636
2.214	0.097131	0.030477	0.003995	0.002287	0.006394	0.041112	0.010848	0.007281	0.008128	0.004497	0.208649	0.003485	0.007521	0.021107	0.022312	0.006639
2.2145	0.098255	0.030889	0.004014	0.002306	0.00637	0.041118	0.010927	0.007352	0.008158	0.004473	0.211257	0.003489	0.007539	0.021788	0.022508	0.006641
2.215	0.099373	0.031303	0.004034	0.002326	0.006346	0.041128	0.011006	0.007426	0.008188	0.004451	0.213861	0.003493	0.00756	0.022491	0.022703	0.006642
2.2155	0.100485	0.031716	0.004055	0.002346	0.006321	0.041144	0.011086	0.007502	0.008219	0.004429	0.216462	0.003499	0.007582	0.023216	0.022896	0.006643
2.216	0.101591	0.03213	0.004077	0.002368	0.006297	0.041165	0.011166	0.007581	0.00825	0.004409	0.21906	0.003506	0.007606	0.023964	0.023088	0.006644
2.2165	0.10269	0.032545	0.004101	0.00239	0.006273	0.041191	0.011246	0.007662	0.008281	0.00439	0.221655	0.003513	0.007632	0.024733	0.023278	0.006644
2.217	0.103783	0.032959	0.004125	0.002413	0.006248	0.041223	0.011327	0.007746	0.008313	0.004372	0.224246	0.003522	0.007659	0.025524	0.023466	0.006644
2.2175	0.104869	0.033374	0.00415	0.002437	0.006224	0.041261	0.011407	0.007833	0.008346	0.004356	0.226833	0.003532	0.007689	0.026337	0.023653	0.006643
2.218	0.105949	0.03379	0.004176	0.002462	0.0062	0.041304	0.011488	0.007922	0.008379	0.00434	0.229416	0.003543	0.00772	0.02717	0.023837	0.006642
2.2185	0.107021	0.034205	0.004203	0.002487	0.006176	0.041353	0.011569	0.008013	0.008412	0.004326	0.231995	0.003555	0.007754	0.028025	0.02402	0.006641
2.219	0.108085	0.034621	0.004231	0.002513	0.006151	0.041408	0.01165	0.008106	0.008447	0.004313	0.23457	0.003568	0.007789	0.0289	0.024201	0.006639
2.2195	0.109143	0.035037	0.00426	0.00254	0.006127	0.04147	0.011732	0.008202	0.008481	0.004301	0.237141	0.003582	0.007826	0.029796	0.02438	0.006637
2.22	0.110192	0.035454	0.00429	0.002567	0.006103	0.041538	0.011813	0.008301	0.008516	0.00429	0.239707	0.003597	0.007864	0.030712	0.024556	0.006634
2.2205	0.111234	0.035871	0.004321	0.002595	0.00608	0.041612	0.011895	0.008401	0.008552	0.00428	0.242268	0.003613	0.007905	0.031648	0.024731	0.006631
2.221	0.112267	0.036288	0.004353	0.002624	0.006056	0.041694	0.011977	0.008504	0.008589	0.004272	0.244824	0.00363	0.007947	0.032604	0.024903	0.006628
2.2215	0.113292	0.036706	0.004385	0.002653	0.006033	0.041782	0.01206	0.008609	0.008625	0.004264	0.247374	0.003648	0.007991	0.03358	0.025072	0.006625
2.222	0.114309	0.037125	0.004419	0.002683	0.00601	0.041877	0.012142	0.008716	0.008663	0.004258	0.249919	0.003666	0.008037	0.034576	0.025239	0.006621
2.2225	0.115318	0.037544	0.004454	0.002713	0.005987	0.041979	0.012225	0.008825	0.0087	0.004253	0.252459	0.003686	0.008084	0.035591	0.025404	0.006617
2.223	0.116318	0.037963	0.004489	0.002744	0.005965	0.042089	0.012307	0.008937	0.008739	0.004249	0.254994	0.003707	0.008134	0.036624	0.025565	0.006612
2.2235	0.117309	0.038384	0.004525	0.002776	0.005943	0.042206	0.01239	0.00905	0.008778	0.004246	0.257523	0.003728	0.008184	0.037677	0.025725	0.006608
2.224	0.118291	0.038805	0.004562	0.002808	0.005922	0.042331	0.012473	0.009166	0.008817	0.004244	0.260046	0.003751	0.008237	0.038749	0.025881	0.006603
2.2245	0.119265	0.039227	0.0046	0.00284	0.005901	0.042464	0.012556	0.009283	0.008857	0.004244	0.262563	0.003774	0.008291	0.039838	0.026034	0.006597
2.225	0.120229	0.03965	0.004639	0.002873	0.00588	0.042604	0.012639	0.009403	0.008897	0.004244	0.265074	0.003798	0.008347	0.040946	0.026184	0.006592
2.2255	0.121184	0.040074	0.004679	0.002906	0.005861	0.042752	0.012722	0.009524	0.008938	0.004246	0.267579	0.003823	0.008404	0.042072	0.026332	0.006586
2.226	0.12213	0.0405	0.00472	0.00294	0.005841	0.042908	0.012806	0.009648	0.008979	0.004248	0.270077	0.003849	0.008463	0.043216	0.026476	0.00658
2.2265	0.123067	0.040927	0.004761	0.002974	0.005823	0.043072	0.012889	0.009773	0.00902	0.004252	0.272569	0.003876	0.008523	0.044377	0.026618	0.006573
2.227	0.123995	0.041356	0.004804	0.003009	0.005805	0.043244	0.012972	0.0099	0.009062	0.004256	0.275053	0.003904	0.008585	0.045555	0.026756	0.006567
2.2275	0.124913	0.041786	0.004847	0.003044	0.005788	0.043425	0.013056	0.010029	0.009105	0.004262	0.27753	0.003932	0.008648	0.046751	0.026892	0.00656
2.228	0.125822	0.042219	0.004891	0.003079	0.005772	0.043613	0.01314	0.010159	0.009148	0.004269	0.279998	0.003961	0.008713	0.047963	0.027024	0.006552
2.2285	0.126721	0.042653	0.004935	0.003115	0.005756	0.04381	0.013223	0.010292	0.009191	0.004276	0.282458	0.003991	0.008779	0.049192	0.027153	0.006545
2.229	0.127611	0.04309	0.004981	0.00315	0.005742	0.044015	0.013307	0.010426	0.009234	0.004285	0.284909	0.004021	0.008847	0.050437	0.02728	0.006537
2.2295	0.128491	0.043528	0.005027	0.003187	0.005728	0.044229	0.013391	0.010561	0.009278	0.004295	0.287349	0.004052	0.008915	0.051698	0.027403	0.006528
2.23	0.129361	0.043969	0.005074	0.003223	0.005716	0.044451	0.013474	0.010698	0.009322	0.004305	0.289779	0.004084	0.008985	0.052974	0.027524	0.00652
2.2305	0.130222	0.044413	0.005122	0.00326	0.005704	0.044681	0.013558	0.010837	0.009366	0.004317	0.292198	0.004117	0.009057	0.054266	0.027642	0.006511
2.231	0.131072	0.044859	0.005171	0.003297	0.005693	0.04492	0.013642	0.010977	0.00941	0.00433	0.294604	0.00415	0.009129	0.055573	0.027757	0.006502
2.2315	0.131913	0.045308	0.00522	0.003334	0.005684	0.045167	0.013726	0.011119	0.009455	0.004343	0.296998	0.004184	0.009203	0.056894	0.027869	0.006492
2.232	0.132744	0.04576	0.005271	0.003371	0.005676	0.045423	0.01381	0.011262	0.0095	0.004357	0.299378	0.004218	0.009277	0.05823	0.027979	0.006483
2.2325	0.133565	0.046215	0.005321	0.003409	0.005668	0.045687	0.013895	0.011406	0.009544	0.004373	0.301743	0.004253	0.009353	0.059579	0.028085	0.006473
2.233	0.134376	0.046673	0.005373	0.003447	0.005663	0.04596	0.013979	0.011552	0.009589	0.004389	0.304093	0.004289	0.00943	0.060942	0.028189	0.006463
2.2335	0.135178	0.047134	0.005425	0.003485	0.005658	0.046241	0.014063	0.011699	0.009634	0.004406	0.306427	0.004325	0.009508	0.062317	0.02829	0.006453
2.234	0.135969	0.047599	0.005479	0.003523	0.005655	0.046531	0.014148	0.011847	0.009679	0.004423	0.308744	0.004361	0.009586	0.063706	0.028389	0.006443
2.2345	0.136751	0.048066	0.005532	0.003561	0.005653	0.046829	0.014232	0.011996	0.009724	0.004442	0.311043	0.004399	0.009666	0.065106	0.028485	0.006433
2.235	0.137523	0.048537	0.005587	0.0036	0.005652	0.047135	0.014317	0.012146	0.009768	0.004461	0.313324	0.004436	0.009746	0.066518	0.028578	0.006423
2.2355	0.138285	0.049012	0.005642	0.003638	0.005653	0.047449	0.014402	0.012297	0.009813	0.004481	0.315587	0.004474	0.009827	0.067941	0.02867	0.006413
2.236	0.139037	0.04949	0.005698	0.003677	0.005656	0.047772	0.014487	0.012449	0.009857	0.004502	0.317832	0.004512	0.009909	0.069375	0.028759	0.006402
2.2365	0.13978	0.049972	0.005754	0.003716	0.00566	0.048102	0.014572	0.012602	0.009901	0.004524	0.320058	0.004551	0.009992	0.070819	0.028845	0.006392
2.237	0.140513	0.050458	0.005812	0.003755	0.005666	0.048441	0.014657	0.012756	0.009945	0.004546	0.322266	0.00459	0.010075	0.072273	0.02893	0.006382
2.2375	0.141237	0.050948	0.00587	0.003793	0.005673	0.048787	0.014742	0.01291	0.009989	0.004569	0.324455	0.00463	0.010158	0.073737	0.029013	0.006372
2.238	0.141951	0.051442	0.005928	0.003832	0.005682	0.049141	0.014827	0.013065	0.010033	0.004593	0.326625	0.00467	0.010242	0.075209	0.029095	0.006362
2.2385	0.142655	0.051941	0.005987	0.003872	0.005694	0.049502	0.014913	0.013221	0.010076	0.004617	0.328776	0.00471	0.010327	0.076689	0.029174	0.006353
2.239	0.14335	0.052443	0.006047	0.003911	0.005707	0.049871	0.014999	0.013377	0.010119	0.004642	0.330909	0.00475	0.010413	0.078177	0.029252	0.006343
2.2395	0.144036	0.05295	0.006108	0.00395	0.005722	0.050247	0.015085	0.013534	0.010162	0.004668	0.333022	0.004791	0.010498	0.079672	0.029329	0.006334
2.24	0.144711	0.053461	0.006169	0.003989	0.005739	0.050631	0.015171	0.013691	0.010205	0.004694	0.335117	0.004832	0.010584	0.081173	0.029404	0.006325
2.2405	0.145377	0.053977	0.00623	0.004028	0.005758	0.051021	0.015257	0.013849	0.010247	0.004721	0.337194	0.004873	0.010671	0.082681	0.029478	0.006317
2.241	0.146033	0.054497	0.006293	0.004067	0.00578	0.051418	0.015343	0.014007	0.01029	0.004749	0.339254	0.004915	0.010758	0.084193	0.029552	0.006309
2.2415	0.146679	0.055022	0.006356	0.004106	0.005804	0.051821	0.01543	0.014165	0.010332	0.004777	0.341296	0.004956	0.010845	0.08571	0.029624	0.006301
2.242	0.147315	0.055552	0.006419	0.004145	0.00583	0.052231	0.015516	0.014323	0.010373	0.004806	0.34332	0.004998	0.010933	0.087232	0.029695	0.006294
2.2425	0.14794	0.056087	0.006483	0.004184	0.005859	0.052647	0.015603	0.014481	0.010415	0.004835	0.345328	0.00504	0.011021	0.088756	0.029765	0.006288
2.243	0.148556	0.056627	0.006548	0.004223	0.00589	0.053069	0.015691	0.01464	0.010457	0.004865	0.347319	0.005083	0.011109	0.090284	0.029835	0.006282
2.2435	0.14916	0.057171	0.006614	0.004262	0.005924	0.053497	0.015778	0.014798	0.010498	0.004896	0.349293	0.005125	0.011197	0.091813	0.029904	0.006277
2.244	0.149754	0.057721	0.00668	0.004301	0.005961	0.05393	0.015866	0.014956	0.010539	0.004927	0.35125	0.005167	0.011285	0.093344	0.029972	0.006273
2.2445	0.150337	0.058275	0.006746	0.004339	0.006	0.054369	0.015954	0.015115	0.01058	0.004959	0.35319	0.00521	0.011374	0.094876	0.03004	0.006269
2.245	0.150908	0.058834	0.006814	0.004378	0.006043	0.054813	0.016042	0.015272	0.010621	0.004992	0.355114	0.005253	0.011462	0.096408	0.030107	0.006267
2.2455	0.151468	0.059399	0.006881	0.004416	0.006088	0.055262	0.016131	0.01543	0.010662	0.005025	0.35702	0.005295	0.011551	0.09794	0.030174	0.006265
2.246	0.152015	0.059968	0.00695	0.004454	0.006137	0.055715	0.01622	0.015588	0.010702	0.005059	0.358908	0.005338	0.011639	0.099471	0.03024	0.006265
2.2465	0.15255	0.060542	0.007019	0.004492	0.006188	0.056173	0.016309	0.015745	0.010743	0.005093	0.360778	0.005381	0.011728	0.101001	0.030306	0.006265
2.247	0.153073	0.061122	0.007088	0.00453	0.006243	0.056635	0.016399	0.015901	0.010783	0.005128	0.362629	0.005424	0.011817	0.102528	0.030371	0.006267
2.2475	0.153582	0.061706	0.007158	0.004568	0.006302	0.057101	0.016489	0.016057	0.010823	0.005164	0.364462	0.005466	0.011905	0.104053	0.030436	0.00627
2.248	0.154077	0.062294	0.007229	0.004605	0.006363	0.05757	0.016579	0.016213	0.010863	0.0052	0.366274	0.005509	0.011994	0.105574	0.030501	0.006274
2.2485	0.154559	0.062888	0.0073	0.004643	0.006428	0.058042	0.01667	0.016368	0.010903	0.005237	0.368065	0.005552	0.012082	0.107091	0.030565	0.006279
2.249	0.155027	0.063486	0.007371	0.00468	0.006497	0.058518	0.016761	0.016522	0.010943	0.005275	0.369835	0.005594	0.012171	0.108604	0.030629	0.006286
2.2495	0.155481	0.064089	0.007443	0.004717	0.00657	0.058996	0.016852	0.016676	0.010982	0.005313	0.371583	0.005637	0.012259	0.110112	0.030692	0.006295
2.25	0.15592	0.064696	0.007516	0.004753	0.006646	0.059476	0.016944	0.016829	0.011022	0.005351	0.373307	0.005679	0.012347	0.111613	0.030755	0.006305
2.2505	0.156344	0.065308	0.007588	0.004789	0.006726	0.059959	0.017036	0.016981	0.011062	0.005391	0.375008	0.005721	0.012435	0.113109	0.030818	0.006316
2.251	0.156753	0.065924	0.007662	0.004825	0.00681	0.060443	0.017128	0.017132	0.011101	0.00543	0.376684	0.005763	0.012523	0.114598	0.03088	0.00633
2.2515	0.157147	0.066545	0.007736	0.004861	0.006899	0.060928	0.017221	0.017283	0.011141	0.00547	0.378334	0.005805	0.012611	0.11608	0.030941	0.006345
2.252	0.157524	0.067169	0.00781	0.004897	0.006991	0.061414	0.017314	0.017432	0.011181	0.005511	0.379957	0.005846	0.012699	0.117555	0.031002	0.006362
2.2525	0.157886	0.067797	0.007885	0.004932	0.007087	0.0619	0.017407	0.017581	0.011221	0.005552	0.381551	0.005887	0.012786	0.119022	0.031063	0.006381
2.253	0.158231	0.068429	0.00796	0.004967	0.007188	0.062386	0.017501	0.017728	0.01126	0.005594	0.383116	0.005928	0.012873	0.12048	0.031122	0.006402
2.2535	0.15856	0.069065	0.008036	0.005002	0.007294	0.062872	0.017595	0.017875	0.0113	0.005636	0.384651	0.005969	0.012959	0.12193	0.031182	0.006424
2.254	0.158872	0.069705	0.008112	0.005037	0.007403	0.063356	0.017689	0.018021	0.01134	0.005679	0.386153	0.00601	0.013045	0.123371	0.03124	0.006449
2.2545	0.159166	0.070347	0.008188	0.005072	0.007518	0.06384	0.017783	0.018165	0.01138	0.005722	0.387622	0.00605	0.013131	0.124804	0.031298	0.006476
2.255	0.159444	0.070993	0.008265	0.005106	0.007637	0.064321	0.017878	0.018309	0.01142	0.005766	0.389056	0.00609	0.013216	0.126227	0.031356	0.006506
2.2555	0.159704	0.071642	0.008343	0.005141	0.00776	0.0648	0.017973	0.018451	0.01146	0.00581	0.390455	0.00613	0.0133	0.12764	0.031413	0.006537
2.256	0.159947	0.072294	0.008421	0.005175	0.007889	0.065276	0.018068	0.018592	0.0115	0.005854	0.391818	0.006169	0.013384	0.129045	0.03147	0.006571
2.2565	0.160172	0.072949	0.008499	0.005209	0.008022	0.065749	0.018163	0.018732	0.011541	0.005899	0.393144	0.006208	0.013467	0.130439	0.031526	0.006608
2.257	0.160379	0.073606	0.008579	0.005244	0.008161	0.066217	0.018259	0.018871	0.011581	0.005944	0.394431	0.006247	0.01355	0.131824	0.031582	0.006647
2.2575	0.160567	0.074266	0.008658	0.005278	0.008304	0.066681	0.018355	0.019009	0.011622	0.00599	0.395679	0.006286	0.013631	0.133198	0.031637	0.006688
2.258	0.160738	0.074928	0.008739	0.005312	0.008453	0.06714	0.018451	0.019146	0.011663	0.006036	0.396886	0.006324	0.013712	0.134562	0.031693	0.006732
2.2585	0.160889	0.075592	0.00882	0.005347	0.008607	0.067593	0.018548	0.019282	0.011704	0.006082	0.398051	0.006362	0.013791	0.135916	0.031748	0.006779
2.259	0.161022	0.076258	0.008901	0.005381	0.008766	0.06804	0.018645	0.019417	0.011745	0.006128	0.399174	0.0064	0.01387	0.137259	0.031803	0.006828
2.2595	0.161135	0.076926	0.008983	0.005416	0.008931	0.06848	0.018743	0.019551	0.011786	0.006175	0.400252	0.006438	0.013947	0.138592	0.031858	0.006881
2.26	0.16123	0.077596	0.009066	0.005451	0.009102	0.068912	0.018841	0.019684	0.011827	0.006222	0.401285	0.006475	0.014023	0.139913	0.031913	0.006936
2.2605	0.161305	0.078267	0.00915	0.005486	0.009278	0.069336	0.01894	0.019817	0.011869	0.00627	0.402271	0.006512	0.014098	0.141223	0.031969	0.006994
2.261	0.161361	0.07894	0.009234	0.005521	0.00946	0.069752	0.019039	0.019948	0.011911	0.006318	0.40321	0.006549	0.014172	0.142522	0.032024	0.007055
2.2615	0.161398	0.079614	0.009319	0.005557	0.009648	0.070158	0.019139	0.020079	0.011953	0.006366	0.404101	0.006586	0.014244	0.143809	0.03208	0.007119
2.262	0.161414	0.08029	0.009404	0.005593	0.009842	0.070555	0.019239	0.020209	0.011995	0.006414	0.404941	0.006623	0.014314	0.145084	0.032137	0.007187
2.2625	0.161411	0.080966	0.00949	0.005629	0.010042	0.070941	0.01934	0.020339	0.012038	0.006463	0.40573	0.006659	0.014383	0.146347	0.032194	0.007257
2.263	0.161387	0.081644	0.009577	0.005665	0.010249	0.071317	0.019442	0.020467	0.012081	0.006512	0.406467	0.006695	0.014451	0.147597	0.032252	0.007331
2.2635	0.161342	0.082322	0.009665	0.005702	0.010463	0.071682	0.019544	0.020595	0.012124	0.006562	0.40715	0.006732	0.014517	0.148834	0.032311	0.007409
2.264	0.161277	0.083002	0.009753	0.00574	0.010683	0.072035	0.019646	0.020723	0.012168	0.006612	0.407778	0.006768	0.014581	0.150057	0.032371	0.007489
2.2645	0.161191	0.083682	0.009842	0.005777	0.01091	0.072376	0.01975	0.02085	0.012212	0.006662	0.40835	0.006804	0.014643	0.151267	0.032433	0.007573
2.265	0.161084	0.084362	0.009932	0.005816	0.011144	0.072705	0.019853	0.020976	0.012256	0.006712	0.408865	0.00684	0.014703	0.152464	0.032496	0.007661
2.2655	0.160956	0.085042	0.010023	0.005855	0.011384	0.073021	0.019958	0.021102	0.012301	0.006763	0.409322	0.006876	0.014761	0.153646	0.03256	0.007753
2.266	0.160806	0.085723	0.010114	0.005894	0.011633	0.073323	0.020063	0.021227	0.012346	0.006814	0.409719	0.006913	0.014818	0.154815	0.032626	0.007848
2.2665	0.160635	0.086402	0.010206	0.005934	0.011888	0.073612	0.020169	0.021352	0.012392	0.006866	0.410057	0.006949	0.014872	0.155969	0.032694	0.007947
2.267	0.160442	0.087082	0.010299	0.005975	0.012151	0.073887	0.020275	0.021477	0.012438	0.006918	0.410334	0.006986	0.014924	0.157108	0.032764	0.008049
2.2675	0.160228	0.08776	0.010393	0.006016	0.012422	0.074148	0.020383	0.021601	0.012484	0.00697	0.410548	0.007022	0.014974	0.158234	0.032836	0.008156
2.268	0.159991	0.088438	0.010488	0.006058	0.012701	0.074394	0.020491	0.021725	0.012531	0.007023	0.4107	0.007059	0.015022	0.159345	0.032911	0.008266
2.2685	0.159732	0.089114	0.010583	0.0061	0.012987	0.074627	0.020599	0.021849	0.012579	0.007076	0.410789	0.007096	0.015067	0.160441	0.032987	0.008381
2.269	0.159452	0.089789	0.010679	0.006143	0.013281	0.074845	0.020708	0.021973	0.012627	0.00713	0.410815	0.007133	0.01511	0.161523	0.033066	0.008499
2.2695	0.159149	0.090463	0.010777	0.006187	0.013584	0.075048	0.020818	0.022096	0.012676	0.007184	0.410777	0.00717	0.015151	0.16259	0.033148	0.008622
2.27	0.158825	0.091135	0.010875	0.006232	0.013895	0.075237	0.020929	0.022219	0.012725	0.007238	0.410677	0.007208	0.015189	0.163643	0.033232	0.008748
2.2705	0.158479	0.091806	0.010974	0.006277	0.014215	0.075412	0.02104	0.022342	0.012775	0.007293	0.410513	0.007246	0.015225	0.164682	0.033319	0.008879
2.271	0.158112	0.092474	0.011074	0.006323	0.014543	0.075573	0.021153	0.022465	0.012826	0.007349	0.410285	0.007284	0.015259	0.165706	0.033408	0.009015
2.2715	0.157723	0.093141	0.011175	0.00637	0.014879	0.075719	0.021265	0.022588	0.012877	0.007404	0.409994	0.007323	0.015289	0.166716	0.033501	0.009154
2.272	0.157313	0.093805	0.011277	0.006418	0.015225	0.075853	0.021379	0.022711	0.012929	0.007461	0.409639	0.007362	0.015318	0.167711	0.033596	0.009298
2.2725	0.156882	0.094467	0.01138	0.006467	0.01558	0.075972	0.021493	0.022835	0.012981	0.007518	0.40922	0.007401	0.015344	0.168693	0.033695	0.009447
2.273	0.15643	0.095127	0.011484	0.006516	0.015943	0.07608	0.021608	0.022958	0.013035	0.007575	0.408736	0.007441	0.015367	0.16966	0.033797	0.0096
2.2735	0.155956	0.095784	0.011589	0.006566	0.016316	0.076174	0.021724	0.023081	0.013089	0.007633	0.408186	0.007481	0.015388	0.170614	0.033902	0.009757
2.274	0.155463	0.096439	0.011695	0.006617	0.016699	0.076257	0.021841	0.023205	0.013144	0.007691	0.40757	0.007522	0.015407	0.171554	0.03401	0.009919
2.2745	0.154948	0.097091	0.011802	0.006669	0.017091	0.076329	0.021958	0.023329	0.013199	0.00775	0.406888	0.007563	0.015423	0.172481	0.034122	0.010086
2.275	0.154413	0.09774	0.01191	0.006721	0.017492	0.07639	0.022076	0.023453	0.013255	0.00781	0.406139	0.007604	0.015437	0.173394	0.034237	0.010257
2.2755	0.153858	0.098387	0.012019	0.006775	0.017903	0.07644	0.022195	0.023577	0.013312	0.007869	0.405323	0.007646	0.015448	0.174294	0.034355	0.010433
2.276	0.153283	0.099031	0.012129	0.006829	0.018324	0.07648	0.022315	0.023703	0.01337	0.00793	0.404439	0.007688	0.015458	0.175182	0.034477	0.010614
2.2765	0.152688	0.099673	0.012241	0.006884	0.018755	0.07651	0.022435	0.023828	0.013429	0.007991	0.403488	0.007731	0.015465	0.176057	0.034602	0.010799
2.277	0.152074	0.100313	0.012353	0.00694	0.019196	0.076531	0.022556	0.023954	0.013488	0.008052	0.40247	0.007774	0.01547	0.176919	0.03473	0.01099
2.2775	0.151442	0.10095	0.012466	0.006997	0.019647	0.076542	0.022678	0.024081	0.013548	0.008115	0.401385	0.007818	0.015473	0.177769	0.034862	0.011185
2.278	0.150792	0.101584	0.01258	0.007055	0.020108	0.076546	0.022801	0.024208	0.013608	0.008177	0.400234	0.007863	0.015473	0.178607	0.034998	0.011386
2.2785	0.150125	0.102216	0.012696	0.007113	0.020579	0.07654	0.022924	0.024336	0.01367	0.00824	0.399016	0.007908	0.015472	0.179433	0.035137	0.011591
2.279	0.14944	0.102845	0.012812	0.007172	0.021061	0.076527	0.023048	0.024465	0.013732	0.008304	0.397732	0.007953	0.015469	0.180246	0.035279	0.011802
2.2795	0.14874	0.103472	0.01293	0.007233	0.021553	0.076506	0.023173	0.024594	0.013795	0.008368	0.396382	0.007999	0.015463	0.181048	0.035425	0.012017
2.28	0.148024	0.104096	0.013048	0.007294	0.022055	0.076478	0.023298	0.024724	0.013858	0.008433	0.394967	0.008046	0.015456	0.181839	0.035574	0.012238
2.2805	0.147293	0.104717	0.013168	0.007356	0.022568	0.076442	0.023424	0.024856	0.013923	0.008499	0.393486	0.008093	0.015447	0.182618	0.035727	0.012464
2.281	0.146547	0.105336	0.013288	0.007419	0.023092	0.0764	0.02355	0.024988	0.013988	0.008565	0.391942	0.008141	0.015436	0.183386	0.035883	0.012695
2.2815	0.145788	0.105952	0.01341	0.007483	0.023626	0.076351	0.023678	0.025122	0.014053	0.008631	0.390335	0.008189	0.015424	0.184143	0.036043	0.012932
2.282	0.145017	0.106567	0.013532	0.007547	0.024171	0.076296	0.023806	0.025256	0.01412	0.008698	0.388666	0.008238	0.015409	0.184892	0.036207	0.013173
2.2825	0.144234	0.107178	0.013656	0.007613	0.024727	0.076234	0.023934	0.025393	0.014187	0.008766	0.386936	0.008288	0.015393	0.185631	0.036373	0.01342
2.283	0.14344	0.107788	0.01378	0.00768	0.025293	0.076166	0.024064	0.02553	0.014255	0.008835	0.385147	0.008339	0.015376	0.186361	0.036544	0.013673
2.2835	0.142636	0.108396	0.013906	0.007747	0.02587	0.076093	0.024194	0.025669	0.014323	0.008904	0.383299	0.00839	0.015357	0.187085	0.036717	0.01393
2.284	0.141824	0.109002	0.014032	0.007816	0.026458	0.076013	0.024324	0.02581	0.014392	0.008973	0.381394	0.008442	0.015336	0.187801	0.036894	0.014193
2.2845	0.141004	0.109607	0.01416	0.007886	0.027057	0.075929	0.024455	0.025952	0.014461	0.009043	0.379433	0.008495	0.015314	0.188513	0.037075	0.014462
2.285	0.140177	0.11021	0.014288	0.007957	0.027667	0.075839	0.024588	0.026096	0.014532	0.009114	0.377417	0.008548	0.01529	0.189219	0.037259	0.014736
2.2855	0.139344	0.110812	0.014418	0.008028	0.028288	0.075744	0.02472	0.026242	0.014602	0.009185	0.375348	0.008603	0.015265	0.189922	0.037446	0.015016
2.286	0.138506	0.111412	0.014549	0.008101	0.028919	0.075644	0.024854	0.026389	0.014673	0.009257	0.373228	0.008658	0.015239	0.190622	0.037637	0.015301
2.2865	0.137663	0.112012	0.01468	0.008175	0.029562	0.075539	0.024988	0.026539	0.014745	0.00933	0.371058	0.008714	0.015211	0.19132	0.037831	0.015592
2.287	0.136816	0.11261	0.014813	0.00825	0.030215	0.07543	0.025122	0.02669	0.014817	0.009403	0.368841	0.008771	0.015182	0.192017	0.038029	0.015889
2.2875	0.135967	0.113207	0.014947	0.008327	0.03088	0.075316	0.025257	0.026844	0.014889	0.009476	0.366578	0.008829	0.015151	0.192714	0.038231	0.016192
2.288	0.135116	0.113803	0.015082	0.008404	0.031555	0.075198	0.025393	0.026999	0.014962	0.009551	0.364271	0.008888	0.01512	0.193414	0.038436	0.0165
2.2885	0.134264	0.114398	0.015218	0.008483	0.032241	0.075075	0.02553	0.027157	0.015035	0.009626	0.361922	0.008948	0.015087	0.194116	0.038645	0.016814
2.289	0.133411	0.114992	0.015355	0.008563	0.032938	0.074948	0.025667	0.027317	0.015109	0.009701	0.359533	0.009009	0.015052	0.194822	0.038857	0.017135
2.2895	0.13256	0.115586	0.015494	0.008644	0.033645	0.074817	0.025804	0.027479	0.015183	0.009777	0.357106	0.009071	0.015017	0.195534	0.039073	0.017461
2.29	0.131709	0.116179	0.015633	0.008727	0.034364	0.074682	0.025942	0.027644	0.015257	0.009853	0.354643	0.009135	0.01498	0.196252	0.039293	0.017794
2.2905	0.130861	0.116772	0.015774	0.008811	0.035093	0.074542	0.02608	0.027811	0.015332	0.00993	0.352146	0.009199	0.014942	0.196979	0.039516	0.018132
2.291	0.130015	0.117365	0.015916	0.008896	0.035832	0.074398	0.026219	0.027981	0.015406	0.010008	0.349618	0.009265	0.014903	0.197715	0.039743	0.018477
2.2915	0.129173	0.117958	0.016059	0.008983	0.036583	0.07425	0.026359	0.028153	0.015482	0.010086	0.34706	0.009332	0.014863	0.198461	0.039974	0.018827
2.292	0.128335	0.11855	0.016204	0.009071	0.037343	0.074097	0.026499	0.028327	0.015557	0.010165	0.344475	0.009401	0.014821	0.199219	0.040209	0.019184
2.2925	0.127502	0.119143	0.016349	0.00916	0.038115	0.073941	0.026639	0.028505	0.015633	0.010244	0.341864	0.00947	0.014779	0.199989	0.040448	0.019548
2.293	0.126674	0.119736	0.016496	0.009251	0.038897	0.07378	0.02678	0.028685	0.015709	0.010324	0.33923	0.009542	0.014735	0.200772	0.04069	0.019917
2.2935	0.125852	0.120329	0.016644	0.009343	0.039689	0.073615	0.026921	0.028867	0.015786	0.010404	0.336574	0.009614	0.01469	0.20157	0.040937	0.020293
2.294	0.125036	0.120923	0.016794	0.009437	0.040492	0.073447	0.027062	0.029053	0.015863	0.010485	0.333898	0.009688	0.014644	0.202384	0.041187	0.020675
2.2945	0.124228	0.121516	0.016945	0.009533	0.041305	0.073275	0.027204	0.029241	0.015941	0.010567	0.331204	0.009763	0.014596	0.203213	0.041442	0.021064
2.295	0.123427	0.12211	0.017097	0.00963	0.042128	0.073099	0.027346	0.029432	0.016019	0.010649	0.328494	0.00984	0.014548	0.20406	0.041701	0.021459
2.2955	0.122634	0.122704	0.01725	0.009728	0.042962	0.072919	0.027488	0.029626	0.016097	0.010731	0.325769	0.009919	0.014499	0.204924	0.041964	0.02186
2.296	0.121849	0.123298	0.017405	0.009828	0.043805	0.072736	0.02763	0.029823	0.016176	0.010814	0.32303	0.009999	0.014448	0.205807	0.042231	0.022269
2.2965	0.121073	0.123892	0.017561	0.00993	0.044659	0.07255	0.027772	0.030023	0.016255	0.010898	0.32028	0.010081	0.014396	0.206709	0.042503	0.022684
2.297	0.120306	0.124486	0.017719	0.010034	0.045523	0.07236	0.027914	0.030226	0.016335	0.010982	0.31752	0.010164	0.014343	0.20763	0.042779	0.023106
2.2975	0.119549	0.125079	0.017878	0.010139	0.046396	0.072167	0.028056	0.030431	0.016415	0.011067	0.314751	0.010249	0.014289	0.208572	0.043059	0.023535
2.298	0.118802	0.125672	0.018038	0.010246	0.047279	0.071971	0.028197	0.03064	0.016496	0.011153	0.311973	0.010335	0.014234	0.209534	0.043344	0.02397
2.2985	0.118065	0.126265	0.018199	0.010355	0.048172	0.071772	0.028339	0.030852	0.016577	0.011238	0.30919	0.010424	0.014178	0.210517	0.043634	0.024413
2.299	0.117338	0.126856	0.018362	0.010465	0.049074	0.07157	0.02848	0.031067	0.016659	0.011325	0.306401	0.010513	0.01412	0.211521	0.043928	0.024863
2.2995	0.116622	0.127446	0.018527	0.010577	0.049986	0.071365	0.02862	0.031285	0.016742	0.011412	0.303607	0.010605	0.014062	0.212547	0.044228	0.02532
2.3	0.115917	0.128036	0.018692	0.010691	0.050907	0.071158	0.02876	0.031506	0.016825	0.011499	0.300811	0.010699	0.014002	0.213595	0.044531	0.025784
2.3005	0.115223	0.128623	0.018859	0.010807	0.051837	0.070948	0.0289	0.031731	0.016909	0.011587	0.298012	0.010794	0.013941	0.214666	0.04484	0.026255
2.301	0.11454	0.12921	0.019028	0.010924	0.052776	0.070736	0.029038	0.031959	0.016994	0.011676	0.295212	0.010891	0.013879	0.215758	0.045153	0.026734
2.3015	0.113868	0.129795	0.019198	0.011044	0.053724	0.070523	0.029176	0.03219	0.017079	0.011765	0.292412	0.010989	0.013816	0.216873	0.045472	0.02722
2.302	0.113208	0.130378	0.019369	0.011165	0.054681	0.070307	0.029313	0.032425	0.017165	0.011855	0.289612	0.01109	0.013752	0.218011	0.045795	0.027713
2.3025	0.112559	0.13096	0.019542	0.011288	0.055646	0.070091	0.029448	0.032663	0.017251	0.011945	0.286814	0.011192	0.013687	0.219172	0.046122	0.028214
2.303	0.111923	0.13154	0.019716	0.011413	0.05662	0.069874	0.029583	0.032905	0.017338	0.012035	0.284018	0.011296	0.01362	0.220356	0.046455	0.028722
2.3035	0.111298	0.132118	0.019892	0.01154	0.057602	0.069655	0.029716	0.03315	0.017426	0.012126	0.281226	0.011402	0.013553	0.221562	0.046792	0.029238
2.304	0.110686	0.132696	0.020069	0.011669	0.058593	0.069437	0.029848	0.033398	0.017515	0.012217	0.278437	0.01151	0.013484	0.222792	0.047135	0.029761
2.3045	0.110086	0.133272	0.020248	0.011799	0.059591	0.069218	0.029978	0.033651	0.017604	0.012309	0.275654	0.011619	0.013414	0.224044	0.047482	0.030291
2.305	0.109498	0.133847	0.020428	0.011932	0.060597	0.068998	0.030107	0.033906	0.017694	0.012401	0.272875	0.011731	0.013343	0.225319	0.047834	0.030829
2.3055	0.108923	0.134422	0.02061	0.012066	0.061611	0.068779	0.030234	0.034165	0.017785	0.012494	0.270102	0.011844	0.013272	0.226615	0.04819	0.031374
2.306	0.108361	0.134995	0.020794	0.012203	0.062632	0.06856	0.030359	0.034428	0.017877	0.012586	0.267335	0.011959	0.013199	0.227934	0.048552	0.031927
2.3065	0.107812	0.135568	0.020979	0.012341	0.063661	0.068342	0.030483	0.034694	0.017969	0.01268	0.264575	0.012075	0.013125	0.229275	0.048918	0.032487
2.307	0.107277	0.136141	0.021165	0.012481	0.064697	0.068124	0.030604	0.034964	0.018062	0.012773	0.261822	0.012194	0.013051	0.230636	0.049289	0.033055
2.3075	0.106754	0.136713	0.021353	0.012623	0.06574	0.067907	0.030724	0.035237	0.018156	0.012867	0.259076	0.012314	0.012975	0.232018	0.049665	0.033629
2.308	0.106244	0.137284	0.021543	0.012767	0.06679	0.06769	0.030842	0.035514	0.018251	0.012961	0.256337	0.012436	0.012899	0.23342	0.050045	0.034211
2.3085	0.105748	0.137856	0.021734	0.012913	0.067847	0.067475	0.030958	0.035794	0.018347	0.013055	0.253607	0.01256	0.012822	0.23484	0.05043	0.034801
2.309	0.105265	0.138428	0.021928	0.013061	0.068911	0.067261	0.031073	0.036078	0.018443	0.013149	0.250884	0.012685	0.012744	0.23628	0.050819	0.035397
2.3095	0.104796	0.139	0.022122	0.01321	0.069981	0.067048	0.031185	0.036365	0.018541	0.013244	0.24817	0.012813	0.012666	0.237737	0.051212	0.036001
2.31	0.104339	0.139573	0.022318	0.013362	0.071057	0.066837	0.031295	0.036655	0.018639	0.013339	0.245465	0.012942	0.012587	0.239211	0.05161	0.036612
2.3105	0.103896	0.140148	0.022516	0.013515	0.072139	0.066628	0.031403	0.036949	0.018738	0.013434	0.242769	0.013073	0.012507	0.240701	0.052012	0.037229
2.311	0.103465	0.140724	0.022716	0.01367	0.073228	0.066421	0.031509	0.037246	0.018837	0.013529	0.240083	0.013205	0.012427	0.242206	0.052418	0.037854
2.3115	0.103048	0.141302	0.022916	0.013827	0.074321	0.066216	0.031613	0.037547	0.018938	0.013624	0.237406	0.013339	0.012346	0.243725	0.052827	0.038486
2.312	0.102644	0.141884	0.023119	0.013986	0.07542	0.066014	0.031716	0.037851	0.019039	0.013719	0.234739	0.013475	0.012265	0.245256	0.053241	0.039125
2.3125	0.102252	0.142468	0.023323	0.014147	0.076523	0.065816	0.031816	0.038157	0.019142	0.013815	0.232082	0.013613	0.012183	0.2468	0.053658	0.039771
2.313	0.101873	0.143056	0.023528	0.014309	0.077632	0.065622	0.031914	0.038468	0.019245	0.013911	0.229435	0.013752	0.012101	0.248355	0.054079	0.040424
2.3135	0.101506	0.143647	0.023735	0.014473	0.078744	0.065432	0.03201	0.038781	0.019349	0.014006	0.226798	0.013893	0.012019	0.24992	0.054503	0.041084
2.314	0.101151	0.144243	0.023944	0.014639	0.079861	0.065247	0.032103	0.039098	0.019454	0.014102	0.224172	0.014036	0.011937	0.251494	0.054931	0.041751
2.3145	0.100809	0.144843	0.024153	0.014806	0.080981	0.065067	0.032195	0.039417	0.01956	0.014198	0.221556	0.01418	0.011854	0.253076	0.055363	0.042425
2.315	0.100479	0.145447	0.024365	0.014976	0.082105	0.064893	0.032284	0.03974	0.019667	0.014294	0.21895	0.014326	0.011772	0.254664	0.055799	0.043106
2.3155	0.100161	0.146057	0.024578	0.015146	0.083232	0.064725	0.032371	0.040067	0.019775	0.01439	0.216355	0.014473	0.011689	0.256259	0.056239	0.043794
2.316	0.099855	0.146671	0.024792	0.015319	0.084362	0.064564	0.032456	0.040396	0.019884	0.014486	0.213771	0.014622	0.011607	0.257858	0.056682	0.04449
2.3165	0.099561	0.147291	0.025008	0.015492	0.085494	0.06441	0.032539	0.040728	0.019994	0.014582	0.211199	0.014772	0.011524	0.259461	0.05713	0.045192
2.317	0.099278	0.147915	0.025225	0.015668	0.086629	0.064264	0.032619	0.041064	0.020105	0.014678	0.208637	0.014923	0.011442	0.261066	0.057581	0.0459
2.3175	0.099007	0.148546	0.025444	0.015844	0.087766	0.064126	0.032697	0.041403	0.020218	0.014775	0.206086	0.015076	0.01136	0.262674	0.058036	0.046616
2.318	0.098748	0.149181	0.025664	0.016022	0.088904	0.063997	0.032772	0.041744	0.020332	0.014871	0.203548	0.015231	0.011279	0.264282	0.058495	0.047339
2.3185	0.098499	0.149822	0.025885	0.016202	0.090045	0.063877	0.032846	0.042089	0.020447	0.014967	0.20102	0.015386	0.011197	0.265891	0.058957	0.048068
2.319	0.098261	0.150468	0.026108	0.016382	0.091186	0.063767	0.032917	0.042436	0.020564	0.015063	0.198505	0.015543	0.011116	0.267501	0.059424	0.048804
2.3195	0.098034	0.151119	0.026331	0.016564	0.092329	0.063667	0.032986	0.042787	0.020683	0.015159	0.196003	0.015701	0.011036	0.269109	0.059895	0.049547
2.32	0.097818	0.151776	0.026556	0.016747	0.093473	0.063579	0.033053	0.04314	0.020803	0.015256	0.193513	0.015861	0.010956	0.270717	0.060371	0.050296
2.3205	0.097612	0.152437	0.026783	0.01693	0.094617	0.063501	0.033118	0.043497	0.020926	0.015352	0.191036	0.016021	0.010877	0.272324	0.06085	0.051052
2.321	0.097416	0.153104	0.02701	0.017115	0.095761	0.063437	0.033181	0.043856	0.02105	0.015449	0.188573	0.016183	0.010799	0.273929	0.061335	0.051814
2.3215	0.09723	0.153777	0.027239	0.017301	0.096905	0.063384	0.033241	0.044218	0.021177	0.015545	0.186123	0.016345	0.010721	0.275532	0.061824	0.052582
2.322	0.097054	0.154454	0.027468	0.017487	0.098048	0.063346	0.0333	0.044584	0.021305	0.015642	0.183688	0.016509	0.010644	0.277133	0.062318	0.053357
2.3225	0.096888	0.155135	0.027699	0.017674	0.099191	0.06332	0.033356	0.044952	0.021436	0.015738	0.181266	0.016673	0.010568	0.278731	0.062818	0.054138
2.323	0.096731	0.155822	0.027931	0.017862	0.100334	0.06331	0.03341	0.045324	0.021569	0.015835	0.17886	0.016838	0.010492	0.280326	0.063322	0.054924
2.3235	0.096583	0.156512	0.028163	0.01805	0.101475	0.063314	0.033462	0.045698	0.021704	0.015932	0.176468	0.017004	0.010417	0.281918	0.063833	0.055717
2.324	0.096444	0.157207	0.028397	0.018239	0.102615	0.063333	0.033512	0.046076	0.021842	0.016029	0.174092	0.017171	0.010344	0.283507	0.064349	0.056515
2.3245	0.096314	0.157905	0.028631	0.018428	0.103754	0.063368	0.033559	0.046456	0.021983	0.016126	0.171732	0.017339	0.010271	0.285093	0.064871	0.057319
2.325	0.096193	0.158607	0.028866	0.018617	0.104892	0.063419	0.033604	0.04684	0.022125	0.016223	0.169389	0.017507	0.010199	0.286674	0.065399	0.058128
2.3255	0.096081	0.159311	0.029102	0.018806	0.106029	0.063487	0.033647	0.047227	0.022271	0.01632	0.167062	0.017675	0.010128	0.28825	0.065933	0.058943
2.326	0.095978	0.160018	0.029338	0.018995	0.107164	0.063571	0.033687	0.047617	0.022419	0.016418	0.164752	0.017844	0.010059	0.289822	0.066473	0.059763
2.3265	0.095883	0.160728	0.029575	0.019184	0.108298	0.063674	0.033725	0.04801	0.02257	0.016515	0.162459	0.018013	0.00999	0.291389	0.06702	0.060588
2.327	0.095797	0.161439	0.029812	0.019373	0.109431	0.063794	0.03376	0.048406	0.022724	0.016612	0.160184	0.018183	0.009922	0.29295	0.067573	0.061418
2.3275	0.09572	0.162151	0.030049	0.019561	0.110561	0.063932	0.033793	0.048805	0.02288	0.01671	0.157927	0.018353	0.009855	0.294504	0.068132	0.062254
2.328	0.095651	0.162864	0.030287	0.019749	0.11169	0.064089	0.033823	0.049208	0.02304	0.016807	0.155687	0.018523	0.00979	0.296051	0.068699	0.063094
2.3285	0.095591	0.163576	0.030525	0.019936	0.112818	0.064265	0.03385	0.049613	0.023202	0.016905	0.153466	0.018693	0.009726	0.297591	0.069272	0.063938
2.329	0.095539	0.164289	0.030762	0.020123	0.113943	0.06446	0.033875	0.050021	0.023368	0.017002	0.151264	0.018863	0.009663	0.299122	0.069853	0.064788
2.3295	0.095496	0.165	0.031	0.020308	0.115066	0.064675	0.033898	0.050432	0.023536	0.017099	0.14908	0.019032	0.009601	0.300644	0.07044	0.065642
2.33	0.095461	0.16571	0.031237	0.020493	0.116187	0.06491	0.033918	0.050845	0.023708	0.017197	0.146915	0.019202	0.00954	0.302156	0.071035	0.0665
2.3305	0.095434	0.166417	0.031474	0.020676	0.117305	0.065165	0.033936	0.051261	0.023883	0.017294	0.144769	0.019371	0.00948	0.303657	0.071638	0.067363
2.331	0.095415	0.167122	0.031711	0.020859	0.118421	0.06544	0.033952	0.05168	0.024061	0.017391	0.142643	0.01954	0.009422	0.305146	0.072248	0.068231
2.3315	0.095404	0.167823	0.031947	0.021039	0.119535	0.065737	0.033965	0.052102	0.024242	0.017488	0.140536	0.019708	0.009365	0.306622	0.072866	0.069104
2.332	0.095401	0.16852	0.032183	0.021219	0.120646	0.066054	0.033976	0.052526	0.024426	0.017584	0.138449	0.019876	0.00931	0.308084	0.073493	0.069981
2.3325	0.095406	0.169212	0.032417	0.021397	0.121755	0.066392	0.033985	0.052952	0.024615	0.017681	0.136381	0.020043	0.009255	0.30953	0.074128	0.070864
2.333	0.095418	0.169898	0.032651	0.021573	0.122861	0.066752	0.033992	0.053381	0.024806	0.017777	0.134334	0.020209	0.009202	0.310961	0.074771	0.071752
2.3335	0.095437	0.170578	0.032884	0.021747	0.123964	0.067133	0.033997	0.053812	0.025001	0.017873	0.132307	0.020374	0.00915	0.312373	0.075423	0.072645
2.334	0.095463	0.171251	0.033116	0.021919	0.125065	0.067536	0.034	0.054245	0.0252	0.017969	0.1303	0.020538	0.0091	0.313766	0.076083	0.073543
2.3345	0.095495	0.171915	0.033347	0.02209	0.126162	0.067961	0.034001	0.05468	0.025402	0.018064	0.128313	0.0207	0.009051	0.315138	0.076753	0.074448
2.335	0.095535	0.172571	0.033577	0.022258	0.127256	0.068408	0.034	0.055118	0.025609	0.01816	0.126347	0.020862	0.009003	0.316489	0.077431	0.075358
2.3355	0.09558	0.173216	0.033805	0.022423	0.128347	0.068878	0.033997	0.055557	0.025819	0.018255	0.1244	0.021022	0.008957	0.317816	0.078119	0.076274
2.336	0.095632	0.173851	0.034031	0.022587	0.129434	0.069369	0.033993	0.055998	0.026033	0.018349	0.122475	0.02118	0.008912	0.319118	0.078815	0.077195
2.3365	0.095689	0.174474	0.034256	0.022747	0.130517	0.069883	0.033988	0.05644	0.026252	0.018444	0.120569	0.021337	0.008869	0.320395	0.079521	0.078124
2.337	0.095752	0.175085	0.034479	0.022905	0.131595	0.070419	0.03398	0.056884	0.026475	0.018538	0.118684	0.021493	0.008827	0.321644	0.080237	0.079058
2.3375	0.09582	0.175683	0.034701	0.023061	0.132669	0.070977	0.033972	0.05733	0.026702	0.018631	0.116819	0.021646	0.008787	0.322866	0.080962	0.079999
2.338	0.095894	0.176266	0.03492	0.023213	0.133738	0.071558	0.033962	0.057776	0.026934	0.018725	0.114974	0.021797	0.008748	0.324059	0.081697	0.080947
2.3385	0.095973	0.176834	0.035137	0.023363	0.134802	0.072162	0.03395	0.058223	0.02717	0.018818	0.11315	0.021947	0.00871	0.325223	0.082442	0.081902
2.339	0.096057	0.177386	0.035353	0.023509	0.13586	0.072788	0.033938	0.058671	0.027411	0.018911	0.111346	0.022094	0.008674	0.326356	0.083197	0.082864
2.3395	0.096146	0.17792	0.035566	0.023653	0.136913	0.073436	0.033924	0.059119	0.027657	0.019004	0.109562	0.02224	0.00864	0.327457	0.083962	0.083834
2.34	0.09624	0.178437	0.035776	0.023793	0.137958	0.074107	0.03391	0.059568	0.027907	0.019096	0.107798	0.022382	0.008606	0.328525	0.084738	0.084812
2.3405	0.096339	0.178934	0.035985	0.02393	0.138998	0.0748	0.033894	0.060016	0.028163	0.019189	0.106054	0.022523	0.008575	0.329559	0.085523	0.085798
2.341	0.096441	0.179411	0.03619	0.024064	0.140029	0.075515	0.033877	0.060465	0.028423	0.019281	0.104329	0.022661	0.008545	0.330559	0.086319	0.086792
2.3415	0.096548	0.179867	0.036394	0.024195	0.141054	0.076253	0.03386	0.060913	0.028688	0.019374	0.102625	0.022796	0.008516	0.331524	0.087125	0.087794
2.342	0.096659	0.180301	0.036594	0.024322	0.14207	0.077012	0.033842	0.061361	0.028958	0.019466	0.10094	0.022929	0.008489	0.332453	0.087942	0.088805
2.3425	0.096773	0.180711	0.036792	0.024446	0.143078	0.077793	0.033822	0.061808	0.029234	0.019558	0.099274	0.023059	0.008463	0.333347	0.088768	0.089826
2.343	0.09689	0.181097	0.036987	0.024566	0.144077	0.078596	0.033802	0.062253	0.029514	0.019651	0.097628	0.023187	0.008439	0.334206	0.089606	0.090855
2.3435	0.097011	0.181458	0.03718	0.024683	0.145066	0.07942	0.033782	0.062698	0.0298	0.019743	0.096001	0.023311	0.008417	0.335029	0.090453	0.091894
2.344	0.097133	0.181793	0.037369	0.024796	0.146045	0.080266	0.03376	0.063141	0.030091	0.019836	0.094393	0.023433	0.008396	0.335817	0.091311	0.092942
2.3445	0.097259	0.1821	0.037556	0.024905	0.147014	0.081132	0.033738	0.063583	0.030387	0.019928	0.092805	0.023552	0.008376	0.336569	0.092179	0.093999
2.345	0.097386	0.18238	0.03774	0.025011	0.147971	0.082019	0.033714	0.064022	0.030689	0.020021	0.091235	0.023667	0.008358	0.337286	0.093058	0.095066
2.3455	0.097514	0.18263	0.037921	0.025114	0.148917	0.082927	0.033691	0.06446	0.030996	0.020114	0.089685	0.02378	0.008342	0.337967	0.093946	0.096144
2.346	0.097645	0.18285	0.038099	0.025213	0.14985	0.083854	0.033666	0.064896	0.031308	0.020207	0.088155	0.02389	0.008327	0.338614	0.094845	0.097231
2.3465	0.097776	0.183039	0.038274	0.025308	0.150771	0.084802	0.033641	0.065329	0.031626	0.0203	0.086644	0.023996	0.008313	0.339225	0.095753	0.098328
2.347	0.097908	0.183196	0.038446	0.025399	0.151679	0.085769	0.033614	0.065759	0.031949	0.020394	0.085153	0.0241	0.008301	0.339802	0.096672	0.099436
2.3475	0.098041	0.183322	0.038615	0.025487	0.152573	0.086754	0.033587	0.066186	0.032278	0.020488	0.083682	0.0242	0.00829	0.340344	0.0976	0.100555
2.348	0.098174	0.183415	0.038781	0.025571	0.153452	0.087759	0.03356	0.066611	0.032612	0.020582	0.082231	0.024297	0.008281	0.340852	0.098539	0.101684
2.3485	0.098307	0.183475	0.038944	0.025651	0.154317	0.088781	0.033531	0.067032	0.032952	0.020676	0.080801	0.02439	0.008273	0.341328	0.099487	0.102823
2.349	0.09844	0.183502	0.039103	0.025728	0.155167	0.089822	0.033502	0.06745	0.033297	0.02077	0.07939	0.024481	0.008267	0.341771	0.100445	0.103974
2.3495	0.098572	0.183495	0.039259	0.0258	0.156002	0.09088	0.033473	0.067864	0.033647	0.020865	0.078001	0.024568	0.008262	0.342182	0.101414	0.105135
2.35	0.098704	0.183454	0.039412	0.02587	0.156821	0.091954	0.033443	0.068274	0.034003	0.02096	0.076632	0.024651	0.008259	0.342563	0.102392	0.106306
2.3505	0.098835	0.183379	0.039562	0.025935	0.157624	0.093045	0.033412	0.06868	0.034364	0.021056	0.075285	0.024731	0.008256	0.342912	0.103381	0.107489
2.351	0.098965	0.18327	0.039709	0.025997	0.158411	0.094152	0.033381	0.069082	0.03473	0.021151	0.073958	0.024808	0.008255	0.343232	0.10438	0.108683
2.3515	0.099094	0.183125	0.039852	0.026055	0.159181	0.095273	0.03335	0.069479	0.035102	0.021247	0.072654	0.024881	0.008256	0.343521	0.105389	0.109887
2.352	0.099222	0.182944	0.039992	0.02611	0.159934	0.09641	0.033319	0.069871	0.035479	0.021343	0.071371	0.02495	0.008257	0.343781	0.106408	0.111103
2.3525	0.09935	0.182727	0.040129	0.026161	0.160671	0.097561	0.033288	0.070259	0.035861	0.021439	0.07011	0.025016	0.00826	0.344011	0.107436	0.112329
2.353	0.099475	0.182473	0.040263	0.026208	0.161389	0.098726	0.033256	0.070641	0.036249	0.021536	0.068871	0.025078	0.008264	0.344213	0.108475	0.113566
2.3535	0.0996	0.182183	0.040394	0.026252	0.16209	0.099903	0.033225	0.071018	0.036642	0.021633	0.067655	0.025136	0.00827	0.344386	0.109523	0.114814
2.354	0.099722	0.181857	0.040521	0.026293	0.162772	0.101094	0.033195	0.071389	0.03704	0.021729	0.066461	0.02519	0.008276	0.34453	0.110581	0.116073
2.3545	0.099843	0.181493	0.040645	0.02633	0.163434	0.102296	0.033165	0.071755	0.037443	0.021826	0.065289	0.025241	0.008284	0.344645	0.111649	0.117342
2.355	0.099963	0.181094	0.040766	0.026363	0.164078	0.103509	0.033135	0.072114	0.037851	0.021923	0.06414	0.025288	0.008293	0.344732	0.112726	0.118622
2.3555	0.10008	0.180658	0.040883	0.026393	0.164702	0.104734	0.033106	0.072467	0.038265	0.02202	0.063014	0.02533	0.008303	0.344791	0.113812	0.119912
2.356	0.100195	0.180186	0.040997	0.02642	0.165305	0.105968	0.033077	0.072813	0.038684	0.022117	0.061911	0.025369	0.008314	0.344821	0.114908	0.121213
2.3565	0.100308	0.179679	0.041108	0.026443	0.165888	0.107213	0.033049	0.073153	0.039108	0.022214	0.060831	0.025404	0.008326	0.344823	0.116012	0.122524
2.357	0.100418	0.179136	0.041215	0.026463	0.166449	0.108466	0.033022	0.073486	0.039536	0.022311	0.059774	0.025435	0.008339	0.344796	0.117126	0.123845
2.3575	0.100526	0.178557	0.041319	0.026479	0.166988	0.109727	0.032995	0.073811	0.03997	0.022408	0.05874	0.025463	0.008354	0.34474	0.118248	0.125176
2.358	0.10063	0.177944	0.041419	0.026492	0.167506	0.110996	0.032969	0.07413	0.040409	0.022505	0.057729	0.025486	0.008369	0.344656	0.119378	0.126518
2.3585	0.100732	0.177295	0.041516	0.026502	0.168	0.112272	0.032944	0.074441	0.040853	0.022601	0.056742	0.025505	0.008385	0.344543	0.120516	0.127869
2.359	0.10083	0.176613	0.041609	0.026508	0.168471	0.113554	0.03292	0.074744	0.041301	0.022698	0.055777	0.02552	0.008402	0.344401	0.121662	0.129231
2.3595	0.100925	0.175896	0.041698	0.026511	0.168919	0.114842	0.032896	0.075039	0.041755	0.022794	0.054837	0.025531	0.00842	0.344229	0.122816	0.130604
2.36	0.101017	0.175147	0.041783	0.02651	0.169342	0.116135	0.032874	0.075326	0.042213	0.022889	0.053919	0.025538	0.00844	0.344028	0.123976	0.131986
2.3605	0.101105	0.174365	0.041865	0.026505	0.169741	0.117432	0.032852	0.075605	0.042677	0.022985	0.053025	0.025541	0.00846	0.343797	0.125144	0.133378
2.361	0.101189	0.173551	0.041943	0.026498	0.170115	0.118733	0.032831	0.075875	0.043145	0.02308	0.052155	0.025539	0.008481	0.343535	0.126318	0.13478
2.3615	0.101269	0.172706	0.042017	0.026486	0.170464	0.120037	0.032811	0.076137	0.043619	0.023175	0.051307	0.025534	0.008503	0.343244	0.127498	0.136192
2.362	0.101346	0.171832	0.042086	0.026472	0.170788	0.121344	0.032792	0.07639	0.044098	0.023269	0.050483	0.025524	0.008526	0.342921	0.128685	0.137614
2.3625	0.101418	0.170928	0.042152	0.026453	0.171085	0.122653	0.032775	0.076634	0.044581	0.023364	0.049683	0.025511	0.00855	0.342568	0.129876	0.139045
2.363	0.101486	0.169995	0.042214	0.026432	0.171356	0.123964	0.032758	0.076869	0.045069	0.023457	0.048905	0.025493	0.008574	0.342184	0.131073	0.140486
2.3635	0.10155	0.169035	0.042271	0.026406	0.171601	0.125275	0.032743	0.077094	0.045563	0.023551	0.048151	0.025471	0.0086	0.341769	0.132275	0.141936
2.364	0.101609	0.168048	0.042324	0.026377	0.171819	0.126588	0.032729	0.077311	0.046061	0.023644	0.047419	0.025445	0.008627	0.341322	0.133481	0.143396
2.3645	0.101663	0.167034	0.042373	0.026344	0.17201	0.1279	0.032717	0.077517	0.046564	0.023737	0.046711	0.025415	0.008654	0.340843	0.134691	0.144865
2.365	0.101712	0.165996	0.042417	0.026308	0.172172	0.129212	0.032706	0.077714	0.047072	0.023829	0.046025	0.02538	0.008682	0.340331	0.135905	0.146344
2.3655	0.101756	0.164933	0.042456	0.026268	0.172307	0.130522	0.032697	0.0779	0.047584	0.023921	0.045362	0.025342	0.008711	0.339788	0.137121	0.147832
2.366	0.101795	0.163847	0.042491	0.026225	0.172413	0.131831	0.032689	0.078077	0.048101	0.024013	0.044722	0.025299	0.008741	0.339212	0.138339	0.149328
2.3665	0.101828	0.162739	0.042521	0.026177	0.172491	0.133138	0.032682	0.078242	0.048623	0.024104	0.044104	0.025253	0.008772	0.338603	0.139559	0.150834
2.367	0.101857	0.161609	0.042546	0.026126	0.17254	0.134442	0.032678	0.078397	0.049149	0.024195	0.043509	0.025202	0.008804	0.337963	0.14078	0.152349
2.3675	0.101881	0.16046	0.042567	0.026072	0.172561	0.135742	0.032675	0.078541	0.04968	0.024285	0.042936	0.025147	0.008837	0.337291	0.142002	0.153872
2.368	0.1019	0.159291	0.042582	0.026013	0.172553	0.137039	0.032674	0.078673	0.050215	0.024375	0.042385	0.025088	0.00887	0.336588	0.143225	0.155404
2.3685	0.101914	0.158104	0.042593	0.025951	0.172516	0.138331	0.032674	0.078794	0.050754	0.024465	0.041857	0.025026	0.008904	0.335854	0.144447	0.156944
2.369	0.101924	0.1569	0.042598	0.025885	0.172451	0.139618	0.032676	0.078903	0.051298	0.024554	0.04135	0.024959	0.008939	0.335089	0.14567	0.158493
2.3695	0.101928	0.15568	0.042598	0.025815	0.172358	0.1409	0.03268	0.078999	0.051845	0.024643	0.040866	0.024888	0.008975	0.334293	0.146892	0.160049
2.37	0.101929	0.154444	0.042593	0.025741	0.172236	0.142175	0.032686	0.079083	0.052396	0.024731	0.040404	0.024813	0.009012	0.333466	0.148113	0.161613
2.3705	0.101925	0.153195	0.042583	0.025664	0.172086	0.143443	0.032693	0.079154	0.05295	0.024819	0.039964	0.024734	0.009049	0.33261	0.149334	0.163185
2.371	0.101916	0.151932	0.042567	0.025583	0.171908	0.144703	0.032702	0.079213	0.053508	0.024906	0.039545	0.024652	0.009087	0.331724	0.150552	0.164765
2.3715	0.101903	0.150657	0.042546	0.025497	0.171702	0.145956	0.032713	0.079258	0.05407	0.024993	0.039148	0.024565	0.009126	0.330808	0.151769	0.166351
2.372	0.101885	0.14937	0.04252	0.025408	0.171467	0.147199	0.032725	0.07929	0.054634	0.02508	0.038772	0.024475	0.009165	0.329863	0.152984	0.167945
2.3725	0.101863	0.148073	0.042488	0.025316	0.171204	0.148432	0.032738	0.079309	0.055201	0.025166	0.038418	0.024381	0.009205	0.32889	0.154196	0.169545
2.373	0.101837	0.146765	0.04245	0.025219	0.170913	0.149655	0.032753	0.079315	0.055771	0.025251	0.038085	0.024283	0.009246	0.327889	0.155405	0.171152
2.3735	0.101805	0.145449	0.042407	0.025119	0.170593	0.150867	0.03277	0.079308	0.056342	0.025336	0.037773	0.024182	0.009287	0.326859	0.156611	0.172764
2.374	0.101769	0.144125	0.042359	0.025015	0.170244	0.152066	0.032788	0.079287	0.056916	0.02542	0.037483	0.024077	0.009328	0.325802	0.157814	0.174382
2.3745	0.101728	0.142794	0.042305	0.024907	0.169867	0.153253	0.032807	0.079253	0.057492	0.025503	0.037213	0.023969	0.009371	0.324718	0.159012	0.176005
2.375	0.101682	0.141456	0.042245	0.024795	0.16946	0.154427	0.032827	0.079206	0.058069	0.025586	0.036964	0.023857	0.009413	0.323608	0.160207	0.177633
2.3755	0.101631	0.140113	0.042179	0.02468	0.169025	0.155586	0.032848	0.079145	0.058648	0.025668	0.036735	0.023742	0.009456	0.322471	0.161397	0.179264
2.376	0.101575	0.138766	0.042107	0.02456	0.16856	0.156731	0.032871	0.079072	0.059227	0.025749	0.036527	0.023624	0.0095	0.321309	0.162583	0.180898
2.3765	0.101514	0.137415	0.04203	0.024437	0.168066	0.157861	0.032894	0.078985	0.059807	0.025829	0.036339	0.023503	0.009544	0.320123	0.163764	0.182536
2.377	0.101448	0.136061	0.041947	0.02431	0.167542	0.158975	0.032919	0.078886	0.060388	0.025908	0.036172	0.023378	0.009588	0.318913	0.16494	0.184175
2.3775	0.101377	0.134705	0.041858	0.02418	0.166988	0.160071	0.032944	0.078773	0.060968	0.025987	0.036025	0.023251	0.009632	0.31768	0.166111	0.185815
2.378	0.101301	0.133349	0.041763	0.024045	0.166403	0.16115	0.032971	0.078647	0.061548	0.026064	0.035898	0.02312	0.009677	0.316425	0.167275	0.187456
2.3785	0.101221	0.131991	0.041662	0.023907	0.165789	0.162211	0.032998	0.078509	0.062128	0.02614	0.035791	0.022987	0.009722	0.315148	0.168433	0.189096
2.379	0.101136	0.130634	0.041555	0.023765	0.165144	0.163252	0.033026	0.078357	0.062706	0.026215	0.035704	0.02285	0.009767	0.31385	0.169585	0.190735
2.3795	0.101046	0.129278	0.041442	0.023619	0.164468	0.164274	0.033054	0.078192	0.063283	0.026289	0.035636	0.022711	0.009812	0.312532	0.170729	0.192371
2.38	0.100953	0.127924	0.041324	0.023469	0.163763	0.165275	0.033083	0.078015	0.063859	0.026362	0.035589	0.022569	0.009857	0.311195	0.171866	0.194004
2.3805	0.100855	0.126572	0.041199	0.023316	0.163027	0.166256	0.033113	0.077824	0.064432	0.026433	0.035561	0.022424	0.009903	0.309839	0.172994	0.195633
2.381	0.100754	0.125223	0.041069	0.023158	0.162261	0.167214	0.033143	0.07762	0.065002	0.026503	0.035552	0.022277	0.009948	0.308465	0.174113	0.197256
2.3815	0.100649	0.123877	0.040933	0.022998	0.161465	0.168149	0.033173	0.077403	0.06557	0.026571	0.035562	0.022127	0.009993	0.307074	0.175223	0.198873
2.382	0.10054	0.122536	0.040791	0.022833	0.16064	0.169061	0.033203	0.077174	0.066134	0.026638	0.035592	0.021975	0.010038	0.305668	0.176324	0.200482
2.3825	0.100428	0.121199	0.040643	0.022665	0.159786	0.169949	0.033234	0.076931	0.066695	0.026703	0.035641	0.02182	0.010083	0.304246	0.177414	0.202082
2.383	0.100312	0.119867	0.040489	0.022494	0.158903	0.170811	0.033264	0.076676	0.067251	0.026766	0.035709	0.021664	0.010128	0.302809	0.178494	0.203671
2.3835	0.100193	0.11854	0.04033	0.022319	0.157991	0.171648	0.033294	0.076408	0.067803	0.026827	0.035796	0.021505	0.010173	0.301359	0.179562	0.205249
2.384	0.100071	0.11722	0.040166	0.022141	0.157051	0.172458	0.033324	0.076127	0.068349	0.026887	0.035901	0.021344	0.010217	0.299895	0.180619	0.206814
2.3845	0.099947	0.115906	0.039996	0.021959	0.156084	0.17324	0.033353	0.075834	0.06889	0.026944	0.036026	0.021181	0.010261	0.298417	0.181663	0.208365
2.385	0.099819	0.114599	0.03982	0.021774	0.155088	0.173994	0.033381	0.07553	0.069425	0.026999	0.036169	0.021016	0.010304	0.296927	0.182695	0.209901
2.3855	0.099688	0.113299	0.03964	0.021586	0.154066	0.17472	0.033409	0.075213	0.069953	0.027052	0.036331	0.02085	0.010347	0.295425	0.183713	0.211419
2.386	0.099555	0.112008	0.039454	0.021395	0.153017	0.175416	0.033436	0.074884	0.070475	0.027103	0.036512	0.020682	0.010389	0.293911	0.184716	0.212918
2.3865	0.099419	0.110724	0.039263	0.021201	0.151942	0.176082	0.033461	0.074545	0.070989	0.027151	0.036711	0.020513	0.010431	0.292386	0.185705	0.214397
2.387	0.099281	0.109448	0.039067	0.021005	0.150842	0.176718	0.033485	0.074194	0.071496	0.027197	0.036929	0.020342	0.010472	0.290849	0.186678	0.215853
2.3875	0.09914	0.108181	0.038866	0.020805	0.149717	0.177323	0.033507	0.073834	0.071995	0.02724	0.037166	0.020171	0.010512	0.289301	0.187633	0.217286
2.388	0.098997	0.106923	0.038661	0.020603	0.14857	0.177896	0.033528	0.073463	0.072485	0.02728	0.037421	0.019998	0.010552	0.287743	0.188572	0.218693
2.3885	0.098851	0.105675	0.038451	0.020398	0.147399	0.178437	0.033547	0.073082	0.072966	0.027317	0.037694	0.019824	0.01059	0.286175	0.189492	0.220073
2.389	0.098703	0.104435	0.038236	0.020191	0.146207	0.178946	0.033563	0.072691	0.073438	0.027351	0.037987	0.01965	0.010628	0.284597	0.190392	0.221425
2.3895	0.098553	0.103206	0.038017	0.019981	0.144995	0.179421	0.033577	0.072292	0.0739	0.027382	0.038297	0.019475	0.010664	0.283009	0.191273	0.222745
2.39	0.098401	0.101987	0.037794	0.01977	0.143762	0.179862	0.033589	0.071884	0.074352	0.027409	0.038626	0.0193	0.0107	0.281412	0.192132	0.224032
2.3905	0.098247	0.100778	0.037567	0.019556	0.14251	0.18027	0.033598	0.071468	0.074794	0.027433	0.038973	0.019124	0.010734	0.279806	0.192969	0.225286
2.391	0.098091	0.09958	0.037336	0.01934	0.141239	0.180645	0.033604	0.071043	0.075225	0.027453	0.039338	0.018949	0.010767	0.278191	0.193784	0.226503
2.3915	0.097933	0.098393	0.037102	0.019122	0.139951	0.180985	0.033608	0.070611	0.075644	0.02747	0.039722	0.018773	0.010799	0.276567	0.194575	0.227682
2.392	0.097773	0.097218	0.036864	0.018902	0.138647	0.181293	0.033608	0.070172	0.076051	0.027483	0.040123	0.018598	0.01083	0.274934	0.195342	0.228821
2.3925	0.097611	0.096055	0.036622	0.018681	0.137326	0.181566	0.033606	0.069726	0.076447	0.027493	0.040542	0.018423	0.01086	0.273293	0.196084	0.229919
2.393	0.097447	0.094903	0.036378	0.018458	0.135991	0.181807	0.0336	0.069274	0.076829	0.027499	0.040978	0.018249	0.010888	0.271644	0.196801	0.230974
2.3935	0.09728	0.093764	0.036131	0.018234	0.134641	0.182015	0.033591	0.068817	0.077199	0.0275	0.041432	0.018075	0.010915	0.269986	0.197491	0.231985
2.394	0.097112	0.092638	0.035881	0.018009	0.133279	0.182189	0.033578	0.068354	0.077555	0.027498	0.041904	0.017903	0.010941	0.268319	0.198153	0.232948
2.3945	0.096941	0.091524	0.035628	0.017782	0.131904	0.182332	0.033562	0.067886	0.077898	0.027492	0.042393	0.017731	0.010965	0.266644	0.198788	0.233864
2.395	0.096768	0.090423	0.035373	0.017555	0.130519	0.182441	0.033542	0.067415	0.078227	0.027481	0.042899	0.01756	0.010988	0.264961	0.199394	0.23473
2.3955	0.096593	0.089335	0.035117	0.017326	0.129123	0.182518	0.033518	0.066939	0.078541	0.027467	0.043423	0.01739	0.01101	0.263268	0.199971	0.235546
2.396	0.096415	0.08826	0.034858	0.017097	0.127717	0.182563	0.033491	0.06646	0.078842	0.027448	0.043963	0.017222	0.011031	0.261567	0.200517	0.236308
2.3965	0.096235	0.087198	0.034598	0.016867	0.126303	0.182575	0.033459	0.065979	0.079127	0.027425	0.044521	0.017055	0.01105	0.259857	0.201033	0.237016
2.397	0.096052	0.086149	0.034337	0.016637	0.124882	0.182555	0.033423	0.065495	0.079399	0.027398	0.045096	0.016889	0.011068	0.258139	0.201516	0.237668
2.3975	0.095867	0.085114	0.034074	0.016406	0.123453	0.182502	0.033383	0.065009	0.079655	0.027366	0.045688	0.016726	0.011084	0.256411	0.201966	0.238263
2.398	0.095679	0.084092	0.033811	0.016175	0.122018	0.182417	0.033338	0.064522	0.079896	0.027329	0.046297	0.016564	0.011099	0.254675	0.202383	0.238799
2.3985	0.095488	0.083084	0.033547	0.015944	0.120577	0.182299	0.033289	0.064034	0.080123	0.027289	0.046924	0.016404	0.011113	0.252931	0.202765	0.239274
2.399	0.095294	0.082089	0.033282	0.015712	0.119133	0.182148	0.033235	0.063546	0.080334	0.027243	0.047567	0.016246	0.011126	0.251179	0.203112	0.239688
2.3995	0.095097	0.081107	0.033017	0.015481	0.117684	0.181964	0.033177	0.063058	0.080529	0.027194	0.048227	0.01609	0.011137	0.249419	0.203422	0.240039
2.4	0.094898	0.080139	0.032751	0.015251	0.116232	0.181747	0.033113	0.062569	0.080709	0.02714	0.048905	0.015937	0.011147	0.247651	0.203697	0.240328
2.4005	0.094696	0.079184	0.032486	0.01502	0.114779	0.181499	0.033045	0.062082	0.080873	0.027082	0.0496	0.015786	0.011155	0.245876	0.203934	0.240553
2.401	0.094491	0.078243	0.03222	0.01479	0.113324	0.181218	0.032973	0.061595	0.081021	0.02702	0.050312	0.015638	0.011162	0.244094	0.204134	0.240715
2.4015	0.094283	0.077315	0.031955	0.014561	0.111868	0.180907	0.032895	0.06111	0.081152	0.026953	0.051041	0.015493	0.011167	0.242306	0.204296	0.240815
2.402	0.094073	0.076401	0.031691	0.014333	0.110412	0.180565	0.032813	0.060627	0.081267	0.026883	0.051788	0.01535	0.011172	0.240511	0.204421	0.240851
2.4025	0.093861	0.075501	0.031427	0.014105	0.108956	0.180194	0.032727	0.060146	0.081366	0.026808	0.052553	0.01521	0.011174	0.238711	0.204508	0.240826
2.403	0.093646	0.074614	0.031164	0.013878	0.107502	0.179795	0.032635	0.059667	0.081448	0.026729	0.053335	0.015073	0.011176	0.236905	0.204557	0.240739
2.4035	0.093429	0.073742	0.030902	0.013653	0.10605	0.179368	0.032539	0.05919	0.081514	0.026647	0.054135	0.01494	0.011176	0.235094	0.204569	0.240591
2.404	0.09321	0.072884	0.030641	0.013428	0.1046	0.178915	0.032438	0.058716	0.081563	0.02656	0.054953	0.01481	0.011175	0.233279	0.204543	0.240382
2.4045	0.09299	0.07204	0.030381	0.013205	0.103154	0.178435	0.032333	0.058246	0.081595	0.02647	0.055788	0.014683	0.011172	0.231459	0.20448	0.240113
2.405	0.092768	0.07121	0.030123	0.012984	0.101711	0.17793	0.032223	0.057779	0.081612	0.026376	0.056641	0.01456	0.011168	0.229636	0.20438	0.239785
2.4055	0.092544	0.070395	0.029866	0.012764	0.100273	0.177401	0.032109	0.057315	0.081612	0.026278	0.057512	0.014441	0.011163	0.22781	0.204244	0.239398
2.406	0.092318	0.069595	0.029611	0.012546	0.098839	0.176848	0.03199	0.056855	0.081596	0.026177	0.058402	0.014325	0.011157	0.225982	0.204071	0.238953
2.4065	0.092092	0.06881	0.029357	0.01233	0.097412	0.176272	0.031867	0.056399	0.081565	0.026071	0.059309	0.014214	0.011149	0.224152	0.203862	0.238451
2.407	0.091864	0.06804	0.029105	0.012116	0.09599	0.175675	0.03174	0.055947	0.081518	0.025963	0.060235	0.014107	0.01114	0.222322	0.203617	0.237895
2.4075	0.091635	0.067285	0.028855	0.011904	0.094576	0.175056	0.031608	0.055499	0.081456	0.025851	0.061179	0.014004	0.01113	0.220492	0.203337	0.237284
2.408	0.091405	0.066544	0.028607	0.011694	0.093168	0.174416	0.031472	0.055056	0.081378	0.025735	0.062142	0.013906	0.011118	0.218662	0.203024	0.236621
2.4085	0.091175	0.06582	0.028362	0.011487	0.091769	0.173758	0.031333	0.054618	0.081286	0.025616	0.063123	0.013812	0.011105	0.216833	0.202676	0.235907
2.409	0.090946	0.06511	0.028118	0.011282	0.090378	0.17308	0.03119	0.054185	0.081179	0.025494	0.064123	0.013723	0.011092	0.215007	0.202297	0.235144
2.4095	0.090716	0.064416	0.027877	0.011081	0.088995	0.172384	0.031043	0.053756	0.081057	0.025369	0.065142	0.013639	0.011077	0.213183	0.201886	0.234334
2.41	0.090488	0.063737	0.027639	0.010881	0.087623	0.171671	0.030892	0.053333	0.080922	0.025241	0.06618	0.013559	0.011061	0.211362	0.201446	0.233477
2.4105	0.090261	0.063075	0.027403	0.010685	0.086259	0.170942	0.030739	0.052916	0.080772	0.02511	0.067236	0.013486	0.011044	0.209545	0.200976	0.232576
2.411	0.090036	0.062428	0.02717	0.010492	0.084907	0.170196	0.030582	0.052504	0.080609	0.024977	0.068312	0.013417	0.011026	0.207733	0.200478	0.231632
2.4115	0.089814	0.061796	0.026939	0.010302	0.083564	0.169436	0.030423	0.052098	0.080433	0.02484	0.069406	0.013354	0.011007	0.205926	0.199953	0.230647
2.412	0.089594	0.061181	0.026712	0.010116	0.082233	0.16866	0.03026	0.051698	0.080244	0.024702	0.07052	0.013297	0.010987	0.204125	0.199402	0.229622
2.4125	0.089378	0.060582	0.026487	0.009933	0.080913	0.16787	0.030095	0.051303	0.080042	0.02456	0.071652	0.013246	0.010966	0.202331	0.198826	0.228558
2.413	0.089165	0.059999	0.026266	0.009753	0.079605	0.167067	0.029928	0.050916	0.079828	0.024417	0.072804	0.013201	0.010944	0.200546	0.198225	0.227458
2.4135	0.088956	0.059432	0.026048	0.009578	0.078309	0.166251	0.029758	0.050534	0.079603	0.024271	0.073974	0.013161	0.010921	0.19877	0.197601	0.226321
2.414	0.088751	0.058881	0.025833	0.009406	0.077026	0.165422	0.029586	0.05016	0.079365	0.024123	0.075164	0.013129	0.010898	0.197004	0.196954	0.225151
2.4145	0.08855	0.058346	0.025622	0.009238	0.075755	0.16458	0.029412	0.049792	0.079116	0.023973	0.076373	0.013102	0.010874	0.19525	0.196285	0.223947
2.415	0.088355	0.057828	0.025414	0.009074	0.074498	0.163727	0.029236	0.04943	0.078857	0.023821	0.077601	0.013082	0.010848	0.193509	0.195594	0.222711
2.4155	0.088164	0.057325	0.02521	0.008914	0.073254	0.162862	0.029058	0.049076	0.078586	0.023666	0.078849	0.013069	0.010822	0.191783	0.194882	0.221444
2.416	0.087979	0.056839	0.025009	0.008759	0.072024	0.161985	0.028878	0.048729	0.078305	0.02351	0.080115	0.013063	0.010796	0.190072	0.19415	0.220147
2.4165	0.0878	0.056368	0.024813	0.008608	0.070807	0.161098	0.028697	0.048389	0.078013	0.023352	0.081401	0.013064	0.010768	0.188378	0.193399	0.218822
2.417	0.087626	0.055914	0.02462	0.008461	0.069606	0.160199	0.028514	0.048056	0.077711	0.023192	0.082705	0.013072	0.01074	0.186702	0.192628	0.217468
2.4175	0.087458	0.055475	0.024431	0.008319	0.068418	0.159289	0.028329	0.04773	0.0774	0.023031	0.084029	0.013087	0.01071	0.185046	0.191839	0.216087
2.418	0.087296	0.055053	0.024246	0.008182	0.067246	0.158369	0.028143	0.047411	0.077079	0.022868	0.085371	0.01311	0.01068	0.18341	0.191032	0.214681
2.4185	0.087141	0.054646	0.024065	0.008049	0.066088	0.157439	0.027956	0.0471	0.076748	0.022703	0.086732	0.01314	0.010649	0.181797	0.190207	0.213249
2.419	0.086993	0.054256	0.023888	0.007922	0.064946	0.156497	0.027768	0.046796	0.076408	0.022537	0.088112	0.013178	0.010618	0.180206	0.189366	0.211793
2.4195	0.086851	0.053882	0.023716	0.007799	0.063818	0.155546	0.027578	0.046499	0.076058	0.022369	0.08951	0.013224	0.010585	0.17864	0.188508	0.210314
2.42	0.086717	0.053523	0.023548	0.007682	0.062707	0.154583	0.027387	0.04621	0.0757	0.022199	0.090927	0.013278	0.010552	0.1771	0.187635	0.208813
2.4205	0.086591	0.053181	0.023384	0.00757	0.061611	0.15361	0.027196	0.045927	0.075332	0.022028	0.092361	0.01334	0.010518	0.175586	0.186746	0.20729
2.421	0.086472	0.052854	0.023224	0.007463	0.06053	0.152627	0.027003	0.045652	0.074956	0.021856	0.093813	0.01341	0.010483	0.174101	0.185841	0.205747
2.4215	0.086361	0.052543	0.023069	0.007362	0.059466	0.151632	0.02681	0.045385	0.074571	0.021682	0.095283	0.013488	0.010447	0.172645	0.184922	0.204184
2.422	0.086258	0.052248	0.022918	0.007266	0.058417	0.150627	0.026615	0.045124	0.074177	0.021507	0.096769	0.013575	0.01041	0.17122	0.183989	0.202602
2.4225	0.086163	0.051968	0.022772	0.007176	0.057385	0.14961	0.026421	0.044871	0.073775	0.02133	0.098273	0.01367	0.010372	0.169826	0.183041	0.201002
2.423	0.086077	0.051704	0.02263	0.007091	0.056368	0.148582	0.026225	0.044624	0.073365	0.021152	0.099793	0.013774	0.010334	0.168465	0.182079	0.199384
2.4235	0.085999	0.051456	0.022493	0.007013	0.055368	0.147543	0.026029	0.044385	0.072946	0.020972	0.101329	0.013886	0.010294	0.167138	0.181103	0.19775
2.424	0.08593	0.051222	0.022361	0.00694	0.054384	0.146492	0.025833	0.044152	0.07252	0.020791	0.102881	0.014008	0.010254	0.165846	0.180112	0.1961
2.4245	0.08587	0.051005	0.022233	0.006873	0.053416	0.145429	0.025637	0.043926	0.072085	0.020609	0.104448	0.014138	0.010213	0.164591	0.179108	0.194433
2.425	0.085819	0.050802	0.022111	0.006813	0.052464	0.144355	0.02544	0.043707	0.071643	0.020425	0.10603	0.014277	0.01017	0.163371	0.178089	0.192752
2.4255	0.085777	0.050615	0.021993	0.006758	0.051529	0.143268	0.025243	0.043494	0.071194	0.02024	0.107626	0.014426	0.010127	0.16219	0.177056	0.191056
2.426	0.085744	0.050442	0.02188	0.00671	0.050609	0.142168	0.025046	0.043288	0.070736	0.020054	0.109237	0.014583	0.010082	0.161047	0.176009	0.189346
2.4265	0.085721	0.050285	0.021772	0.006668	0.049706	0.141056	0.024849	0.043088	0.070272	0.019866	0.11086	0.01475	0.010037	0.159944	0.174947	0.187623
2.427	0.085707	0.050142	0.021669	0.006633	0.048819	0.139931	0.024652	0.042894	0.0698	0.019677	0.112497	0.014927	0.00999	0.158881	0.173871	0.185886
2.4275	0.085702	0.050014	0.021571	0.006604	0.047948	0.138793	0.024455	0.042706	0.06932	0.019487	0.114146	0.015112	0.009943	0.157859	0.172779	0.184136
2.428	0.085706	0.049901	0.021478	0.006581	0.047093	0.137642	0.024258	0.042523	0.068834	0.019295	0.115806	0.015308	0.009894	0.156878	0.171673	0.182374
2.4285	0.085719	0.049802	0.021391	0.006566	0.046253	0.136477	0.024061	0.042347	0.06834	0.019103	0.117478	0.015512	0.009844	0.155939	0.170551	0.1806
2.429	0.085742	0.049718	0.021308	0.006557	0.04543	0.135297	0.023865	0.042176	0.067839	0.018909	0.119161	0.015727	0.009793	0.155043	0.169414	0.178814
2.4295	0.085774	0.049647	0.021231	0.006555	0.044622	0.134104	0.023668	0.04201	0.06733	0.018714	0.120853	0.015951	0.009741	0.15419	0.168262	0.177017
2.43	0.085815	0.04959	0.021158	0.006559	0.04383	0.132897	0.023472	0.041849	0.066815	0.018519	0.122555	0.016185	0.009687	0.15338	0.167093	0.175209
2.4305	0.085865	0.049547	0.021091	0.006571	0.043054	0.131675	0.023277	0.041693	0.066293	0.018322	0.124265	0.016429	0.009633	0.152615	0.165909	0.173391
2.431	0.085924	0.049518	0.021029	0.00659	0.042292	0.130439	0.023081	0.041542	0.065763	0.018124	0.125983	0.016683	0.009577	0.151894	0.164709	0.171563
2.4315	0.085992	0.049502	0.020973	0.006616	0.041546	0.129188	0.022887	0.041395	0.065227	0.017926	0.127708	0.016946	0.00952	0.151219	0.163493	0.169726
2.432	0.086069	0.049499	0.020921	0.006649	0.040815	0.127924	0.022692	0.041253	0.064684	0.017727	0.12944	0.01722	0.009462	0.150589	0.16226	0.16788
2.4325	0.086154	0.049509	0.020874	0.006689	0.040099	0.126645	0.022498	0.041116	0.064135	0.017527	0.131178	0.017504	0.009403	0.150004	0.16101	0.166025
2.433	0.086248	0.049531	0.020833	0.006736	0.039398	0.125352	0.022305	0.040983	0.06358	0.017327	0.132921	0.017798	0.009343	0.149466	0.159743	0.164164
2.4335	0.086351	0.049567	0.020796	0.006791	0.038711	0.124046	0.022112	0.040854	0.063019	0.017126	0.134668	0.018102	0.009282	0.148973	0.158459	0.162295
2.434	0.086462	0.049614	0.020765	0.006854	0.038039	0.122725	0.021919	0.040729	0.062451	0.016924	0.13642	0.018416	0.00922	0.148528	0.157158	0.160421
2.4345	0.086582	0.049674	0.020739	0.006924	0.037381	0.121392	0.021728	0.040609	0.061878	0.016722	0.138175	0.01874	0.009157	0.148129	0.155841	0.158541
2.435	0.08671	0.049745	0.020718	0.007001	0.036737	0.120045	0.021536	0.040493	0.061299	0.01652	0.139934	0.019075	0.009093	0.147776	0.154506	0.156655
2.4355	0.086846	0.049829	0.020702	0.007086	0.036107	0.118685	0.021345	0.040381	0.060715	0.016317	0.141695	0.01942	0.009028	0.147471	0.153156	0.154766
2.436	0.086991	0.049923	0.020691	0.007179	0.035491	0.117314	0.021155	0.040274	0.060126	0.016115	0.143459	0.019775	0.008962	0.147212	0.151789	0.152872
2.4365	0.087143	0.050029	0.020686	0.00728	0.034888	0.115931	0.020966	0.040171	0.059531	0.015912	0.145224	0.02014	0.008896	0.147	0.150407	0.150974
2.437	0.087303	0.050145	0.020685	0.007388	0.034299	0.114538	0.020777	0.040071	0.058932	0.015709	0.146991	0.020516	0.008829	0.146836	0.14901	0.149074
2.4375	0.087472	0.050272	0.020689	0.007505	0.033723	0.113135	0.020589	0.039976	0.058327	0.015506	0.14876	0.020901	0.008761	0.146717	0.147598	0.14717
2.438	0.087647	0.05041	0.020699	0.007629	0.033161	0.111723	0.020401	0.039885	0.057718	0.015304	0.150528	0.021297	0.008692	0.146646	0.146172	0.145265
2.4385	0.087831	0.050557	0.020713	0.007761	0.032611	0.110303	0.020214	0.039799	0.057104	0.015102	0.152298	0.021704	0.008623	0.146621	0.144732	0.143357
2.439	0.088022	0.050714	0.020733	0.007902	0.032075	0.108875	0.020028	0.039716	0.056486	0.0149	0.154068	0.02212	0.008553	0.146642	0.143278	0.141448
2.4395	0.08822	0.050881	0.020757	0.00805	0.031551	0.107441	0.019842	0.039637	0.055865	0.014699	0.155838	0.022547	0.008482	0.146709	0.141811	0.139539
2.44	0.088425	0.051057	0.020786	0.008207	0.03104	0.106001	0.019657	0.039563	0.055239	0.014499	0.157609	0.022984	0.008411	0.146822	0.140333	0.137629
2.4405	0.088638	0.051242	0.02082	0.008372	0.030541	0.104555	0.019473	0.039492	0.05461	0.014299	0.15938	0.023432	0.00834	0.146981	0.138842	0.13572
2.441	0.088858	0.051435	0.02086	0.008546	0.030054	0.103105	0.019289	0.039426	0.053979	0.014101	0.161151	0.023889	0.008268	0.147184	0.137341	0.133811
2.4415	0.089085	0.051637	0.020904	0.008728	0.02958	0.101651	0.019106	0.039364	0.053344	0.013903	0.162921	0.024358	0.008196	0.147433	0.135829	0.131905
2.442	0.089319	0.051847	0.020953	0.008918	0.029117	0.100195	0.018923	0.039306	0.052707	0.013706	0.164692	0.024836	0.008123	0.147726	0.134309	0.130001
2.4425	0.08956	0.052065	0.021006	0.009117	0.028666	0.098736	0.018741	0.039252	0.052068	0.01351	0.166462	0.025325	0.00805	0.148062	0.13278	0.1281
2.443	0.089807	0.052291	0.021065	0.009325	0.028227	0.097275	0.01856	0.039202	0.051427	0.013315	0.168232	0.025825	0.007977	0.148442	0.131243	0.126202
2.4435	0.090061	0.052523	0.021129	0.009541	0.0278	0.095813	0.01838	0.039156	0.050784	0.013122	0.17	0.026334	0.007903	0.148865	0.1297	0.124309
2.444	0.090322	0.052763	0.021197	0.009766	0.027384	0.094352	0.018201	0.039115	0.05014	0.01293	0.171768	0.026855	0.00783	0.14933	0.128151	0.122422
2.4445	0.090589	0.05301	0.02127	0.009999	0.026979	0.09289	0.018023	0.039078	0.049495	0.012739	0.173533	0.027386	0.007756	0.149837	0.126597	0.120539
2.445	0.090862	0.053263	0.021348	0.010242	0.026585	0.09143	0.017846	0.039045	0.04885	0.012549	0.175297	0.027928	0.007682	0.150385	0.125039	0.118664
2.4455	0.091141	0.053522	0.021431	0.010493	0.026201	0.089972	0.01767	0.039016	0.048204	0.012361	0.177058	0.02848	0.007608	0.150973	0.123478	0.116795
2.446	0.091427	0.053787	0.021519	0.010754	0.025829	0.088516	0.017495	0.038992	0.047558	0.012175	0.178816	0.029044	0.007534	0.151601	0.121913	0.114933
2.4465	0.091718	0.054058	0.021611	0.011023	0.025466	0.087064	0.017322	0.038973	0.046913	0.01199	0.18057	0.029618	0.00746	0.152268	0.120347	0.11308
2.447	0.092014	0.054334	0.021708	0.011302	0.025114	0.085615	0.017149	0.038957	0.046268	0.011806	0.18232	0.030203	0.007386	0.152974	0.118779	0.111235
2.4475	0.092316	0.054615	0.021809	0.011589	0.024772	0.08417	0.016979	0.038947	0.045624	0.011624	0.184066	0.0308	0.007312	0.153717	0.117211	0.109399
2.448	0.092623	0.054901	0.021916	0.011886	0.02444	0.082731	0.016809	0.038941	0.044981	0.011444	0.185805	0.031407	0.007238	0.154498	0.115643	0.107572
2.4485	0.092934	0.055191	0.022026	0.012192	0.024117	0.081297	0.016641	0.038939	0.044339	0.011266	0.187538	0.032025	0.007164	0.155315	0.114075	0.105756
2.449	0.09325	0.055485	0.022142	0.012507	0.023804	0.079869	0.016475	0.038942	0.0437	0.011089	0.189265	0.032655	0.00709	0.156168	0.112509	0.10395
2.4495	0.093569	0.055783	0.022261	0.012831	0.0235	0.078448	0.01631	0.03895	0.043062	0.010914	0.190984	0.033296	0.007016	0.157056	0.110944	0.102155
2.45	0.093893	0.056085	0.022385	0.013164	0.023205	0.077034	0.016146	0.038962	0.042426	0.010741	0.192694	0.033947	0.006943	0.157978	0.109382	0.100371
2.4505	0.09422	0.056389	0.022514	0.013507	0.022919	0.075629	0.015985	0.038979	0.041793	0.01057	0.194395	0.03461	0.006869	0.158933	0.107823	0.098599
2.451	0.09455	0.056697	0.022647	0.01386	0.022642	0.074231	0.015825	0.039	0.041162	0.010401	0.196087	0.035284	0.006796	0.15992	0.106268	0.096838
2.4515	0.094882	0.057007	0.022784	0.014221	0.022373	0.072843	0.015666	0.039027	0.040534	0.010234	0.197768	0.03597	0.006722	0.160939	0.104717	0.095091
2.452	0.095217	0.05732	0.022925	0.014592	0.022112	0.071463	0.01551	0.039057	0.03991	0.010068	0.199437	0.036666	0.006649	0.161987	0.103171	0.093356
2.4525	0.095554	0.057634	0.02307	0.014973	0.02186	0.070094	0.015355	0.039093	0.039289	0.009905	0.201094	0.037374	0.006576	0.163066	0.10163	0.091635
2.453	0.095892	0.05795	0.023219	0.015363	0.021615	0.068734	0.015202	0.039133	0.038671	0.009743	0.202739	0.038093	0.006504	0.164172	0.100094	0.089927
2.4535	0.09623	0.058268	0.023373	0.015762	0.021378	0.067386	0.015051	0.039178	0.038057	0.009584	0.20437	0.038822	0.006431	0.165306	0.098565	0.088232
2.454	0.096569	0.058586	0.02353	0.016171	0.021148	0.066048	0.014902	0.039227	0.037446	0.009427	0.205986	0.039563	0.006359	0.166467	0.097043	0.086552
2.4545	0.096908	0.058906	0.02369	0.01659	0.020925	0.064721	0.014755	0.039281	0.03684	0.009271	0.207588	0.040315	0.006287	0.167653	0.095527	0.084886
2.455	0.097246	0.059226	0.023855	0.017018	0.020709	0.063406	0.014611	0.039339	0.036238	0.009118	0.209173	0.041078	0.006215	0.168863	0.094019	0.083235
2.4555	0.097583	0.059545	0.024023	0.017456	0.0205	0.062103	0.014468	0.039402	0.03564	0.008967	0.210742	0.041851	0.006144	0.170097	0.09252	0.081599
2.456	0.097918	0.059865	0.024195	0.017903	0.020297	0.060813	0.014327	0.03947	0.035046	0.008818	0.212294	0.042635	0.006072	0.171352	0.091028	0.079978
2.4565	0.09825	0.060184	0.02437	0.01836	0.020101	0.059535	0.014188	0.039542	0.034458	0.008671	0.213827	0.04343	0.006002	0.172629	0.089546	0.078372
2.457	0.09858	0.060502	0.024548	0.018826	0.019911	0.058269	0.014052	0.039618	0.033873	0.008526	0.21534	0.044236	0.005931	0.173926	0.088073	0.076783
2.4575	0.098905	0.060819	0.02473	0.019302	0.019726	0.057017	0.013918	0.039699	0.033294	0.008384	0.216834	0.045052	0.005861	0.175241	0.08661	0.075209
2.458	0.099226	0.061135	0.024915	0.019788	0.019547	0.055778	0.013786	0.039784	0.03272	0.008243	0.218305	0.045878	0.005791	0.176574	0.085156	0.073651
2.4585	0.099542	0.061449	0.025103	0.020283	0.019373	0.054553	0.013656	0.039874	0.032151	0.008105	0.219755	0.046714	0.005721	0.177923	0.083714	0.072109
2.459	0.099853	0.061762	0.025294	0.020788	0.019205	0.053342	0.013529	0.039968	0.031587	0.007969	0.22118	0.04756	0.005652	0.179287	0.082281	0.070584
2.4595	0.100158	0.062073	0.025487	0.021302	0.019041	0.052144	0.013403	0.040066	0.031028	0.007835	0.222581	0.048416	0.005583	0.180665	0.080861	0.069076
2.46	0.100457	0.062382	0.025684	0.021826	0.018882	0.050961	0.01328	0.040169	0.030475	0.007704	0.223957	0.049282	0.005515	0.182055	0.079451	0.067585
2.4605	0.100749	0.062689	0.025883	0.022359	0.018727	0.049792	0.01316	0.040275	0.029927	0.007574	0.225305	0.050157	0.005447	0.183455	0.078054	0.06611
2.461	0.101035	0.062993	0.026084	0.022902	0.018576	0.048638	0.013042	0.040386	0.029384	0.007447	0.226626	0.051041	0.005379	0.184865	0.076668	0.064653
2.4615	0.101314	0.063296	0.026288	0.023454	0.018429	0.047499	0.012926	0.0405	0.028847	0.007322	0.227919	0.051935	0.005312	0.186283	0.075295	0.063213
2.462	0.101586	0.063596	0.026494	0.024016	0.018286	0.046374	0.012812	0.040618	0.028316	0.007199	0.229183	0.052837	0.005245	0.187708	0.073934	0.061791
2.4625	0.10185	0.063894	0.026702	0.024587	0.018146	0.045264	0.012701	0.040741	0.027791	0.007078	0.230417	0.053748	0.005179	0.189137	0.072586	0.060386
2.463	0.102106	0.064189	0.026911	0.025168	0.01801	0.04417	0.012592	0.040866	0.027271	0.006959	0.23162	0.054667	0.005113	0.19057	0.071251	0.058999
2.4635	0.102355	0.064482	0.027123	0.025758	0.017876	0.04309	0.012485	0.040996	0.026756	0.006843	0.232793	0.055595	0.005048	0.192005	0.069928	0.057629
2.464	0.102595	0.064771	0.027336	0.026357	0.017746	0.042026	0.012381	0.041129	0.026248	0.006728	0.233935	0.05653	0.004983	0.19344	0.06862	0.056277
2.4645	0.102829	0.065058	0.027551	0.026965	0.017618	0.040978	0.012279	0.041265	0.025745	0.006616	0.235046	0.057473	0.004918	0.194873	0.067324	0.054944
2.465	0.103055	0.065343	0.027767	0.027583	0.017493	0.039945	0.01218	0.041405	0.025249	0.006506	0.236126	0.058424	0.004854	0.196303	0.066043	0.053628
2.4655	0.103274	0.065625	0.027984	0.02821	0.01737	0.038928	0.012083	0.041548	0.024758	0.006398	0.237175	0.059382	0.00479	0.197729	0.064775	0.05233
2.466	0.103486	0.065904	0.028202	0.028847	0.01725	0.037926	0.011988	0.041694	0.024272	0.006293	0.238193	0.060346	0.004727	0.199149	0.063521	0.05105
2.4665	0.103691	0.06618	0.028421	0.029492	0.017132	0.03694	0.011896	0.041843	0.023793	0.006189	0.23918	0.061317	0.004665	0.200561	0.06228	0.049788
2.467	0.10389	0.066454	0.028641	0.030147	0.017017	0.03597	0.011806	0.041995	0.02332	0.006087	0.240135	0.062294	0.004602	0.201964	0.061054	0.048545
2.4675	0.104082	0.066726	0.028861	0.030811	0.016903	0.035015	0.011718	0.042149	0.022852	0.005988	0.241058	0.063278	0.004541	0.203356	0.059842	0.047319
2.468	0.104268	0.066994	0.029082	0.031485	0.016791	0.034076	0.011633	0.042307	0.022391	0.00589	0.241949	0.064267	0.00448	0.204736	0.058644	0.046112
2.4685	0.104448	0.06726	0.029303	0.032167	0.016681	0.033153	0.01155	0.042466	0.021935	0.005795	0.242807	0.065261	0.004419	0.206102	0.057461	0.044923
