datacolumns 17
datarows 178
time	addmag_r	bicfemlh_r	gaslat_r	gasmed_r	gmax_r	gmed_r	gra_r	perlong_r	recfem_r	sar_r	semimem_r	sol_r	tfl_r	tibant_r	vaslat_r	vasmed_r
1.872	0.004183	0.002329	0.010369	0.008178	0.006973	0.037898	0.006264	0.035834	0.00976	0.011136	0	0.010112	0.010796	0.19099	0.010075	0.01213
1.92	0.008515	0.006153	0.006057	0.005962	0.009084	0.041914	0.006097	0.018259	0.007392	0.004989	0.001819	0.004125	0.004872	0.137314	0.016559	0.010296
1.924	0.010096	0.007885	0.005843	0.005762	0.009458	0.042908	0.006119	0.016839	0.006816	0.004574	0.005637	0.00393	0.004796	0.126647	0.015572	0.009588
1.928	0.012001	0.010011	0.005651	0.005552	0.009846	0.044085	0.006168	0.01555	0.00626	0.004203	0.010513	0.003765	0.004767	0.116058	0.014427	0.008858
1.932	0.014262	0.012564	0.005484	0.00534	0.010241	0.045412	0.006245	0.014413	0.005734	0.003881	0.01658	0.003627	0.004783	0.105897	0.013205	0.008125
1.936	0.016908	0.015566	0.005339	0.005135	0.010635	0.046869	0.00635	0.013436	0.00525	0.003611	0.023966	0.003513	0.004842	0.096452	0.011977	0.007404
1.94	0.019964	0.019028	0.005217	0.004945	0.011016	0.048442	0.006482	0.012615	0.004815	0.003394	0.032782	0.00342	0.004946	0.087904	0.0108	0.006704
1.944	0.023441	0.022943	0.005113	0.004776	0.011362	0.050112	0.006638	0.011936	0.004439	0.00323	0.043113	0.003341	0.005102	0.080344	0.009721	0.006038
1.948	0.027335	0.027284	0.005026	0.00463	0.011649	0.051858	0.006818	0.011382	0.004132	0.003117	0.05501	0.003273	0.005321	0.073783	0.008776	0.00542
1.952	0.031628	0.031996	0.004951	0.004508	0.011865	0.053675	0.007023	0.010934	0.003899	0.003049	0.068491	0.003212	0.005606	0.068185	0.007991	0.004861
1.956	0.036286	0.036996	0.00488	0.004407	0.011997	0.055527	0.007255	0.010572	0.003743	0.00302	0.083546	0.003156	0.005959	0.063492	0.007381	0.004368
1.96	0.041267	0.042166	0.004805	0.004325	0.012036	0.057338	0.007517	0.010279	0.003661	0.00302	0.100118	0.003102	0.006375	0.059701	0.006957	0.003945
1.964	0.046507	0.04735	0.004729	0.00426	0.011967	0.058987	0.007806	0.010043	0.00365	0.00304	0.118089	0.003052	0.006846	0.056862	0.006723	0.00359
1.968	0.05193	0.052358	0.004661	0.004217	0.011783	0.060319	0.008117	0.009872	0.003705	0.003071	0.137308	0.003005	0.007362	0.055063	0.00668	0.003298
1.972	0.057495	0.056975	0.004613	0.004203	0.011495	0.061194	0.008441	0.009784	0.003819	0.003109	0.157604	0.002966	0.007907	0.05438	0.006821	0.003062
1.976	0.06321	0.061037	0.004593	0.004224	0.01113	0.061543	0.008774	0.00979	0.003984	0.003153	0.178822	0.00294	0.008468	0.054845	0.007137	0.00287
1.98	0.069108	0.064487	0.004609	0.004285	0.01072	0.061389	0.00912	0.009893	0.00419	0.003207	0.200822	0.002935	0.009025	0.056445	0.00762	0.002714
1.984	0.075175	0.067355	0.004668	0.004389	0.010297	0.060812	0.009488	0.01009	0.004429	0.003275	0.223405	0.002957	0.009562	0.059179	0.008266	0.002578
1.988	0.081323	0.069753	0.004782	0.004536	0.009885	0.059884	0.00988	0.010373	0.00469	0.003363	0.246231	0.003013	0.010063	0.063073	0.009076	0.002449
1.992	0.08741	0.071855	0.004961	0.004727	0.009507	0.058674	0.010293	0.010742	0.004959	0.003472	0.268827	0.00311	0.010524	0.068157	0.010064	0.002314
1.996	0.09328	0.073822	0.00521	0.004959	0.009186	0.057247	0.010724	0.011201	0.005222	0.003603	0.290574	0.003255	0.010953	0.074461	0.011247	0.002161
2	0.098801	0.075775	0.005534	0.005232	0.008945	0.055683	0.011167	0.011765	0.005466	0.003754	0.310637	0.003451	0.011358	0.082	0.012638	0.001983
2.004	0.103903	0.077801	0.005933	0.005542	0.008809	0.054077	0.011616	0.012443	0.005674	0.003924	0.328128	0.003698	0.011744	0.090771	0.01424	0.001778
2.008	0.108572	0.079966	0.006404	0.005882	0.008803	0.052529	0.012074	0.013235	0.00583	0.004107	0.342392	0.003996	0.012119	0.100771	0.01605	0.001546
2.012	0.112795	0.082301	0.006945	0.006245	0.008949	0.051126	0.012546	0.01414	0.005922	0.004299	0.352932	0.004342	0.012492	0.111973	0.018066	0.001296
2.016	0.116482	0.084791	0.00755	0.006626	0.00927	0.049936	0.013037	0.015147	0.00594	0.004495	0.35927	0.004734	0.012869	0.124389	0.020279	0.001037
2.02	0.119502	0.087387	0.00821	0.007018	0.009793	0.049036	0.013546	0.016241	0.00588	0.004696	0.360883	0.005171	0.013258	0.138046	0.022675	0.000784
2.024	0.121759	0.090021	0.008911	0.007419	0.010542	0.048502	0.014065	0.017409	0.005745	0.004902	0.357512	0.005651	0.01366	0.152872	0.025238	0.000557
2.028	0.123287	0.092652	0.009638	0.007828	0.011537	0.048387	0.014591	0.018637	0.00555	0.005114	0.349452	0.006174	0.014073	0.168643	0.027939	0.000384
2.032	0.12421	0.095286	0.010382	0.008242	0.012793	0.048706	0.015127	0.019904	0.005319	0.005337	0.33738	0.006734	0.014489	0.184964	0.030737	0.000311
2.036	0.124642	0.097966	0.011137	0.008659	0.014331	0.049433	0.015672	0.021183	0.005081	0.005573	0.322076	0.007326	0.014885	0.201276	0.033579	0.000394
2.04	0.124629	0.100729	0.011888	0.009074	0.016182	0.050499	0.016221	0.022444	0.004863	0.005819	0.304366	0.007941	0.01523	0.216865	0.036403	0.000697
2.044	0.124168	0.103603	0.012618	0.009476	0.01838	0.051783	0.016774	0.023668	0.004698	0.006072	0.285008	0.008566	0.015482	0.230978	0.039158	0.00129
2.048	0.123201	0.106559	0.013308	0.009856	0.020955	0.053137	0.017332	0.024856	0.004623	0.00633	0.264572	0.009187	0.015587	0.243073	0.041817	0.002252
2.052	0.121638	0.10952	0.013946	0.010207	0.023928	0.054424	0.0179	0.026001	0.004675	0.006595	0.243568	0.009795	0.015489	0.253088	0.044383	0.003666
2.056	0.119447	0.112379	0.014527	0.010537	0.027317	0.055554	0.018491	0.027106	0.004893	0.006871	0.222515	0.01039	0.015155	0.261577	0.046891	0.005627
2.06	0.116655	0.115025	0.015055	0.010854	0.031144	0.056473	0.019128	0.028195	0.005312	0.007172	0.20185	0.01097	0.014599	0.26929	0.049405	0.008233
2.064	0.113325	0.117331	0.015552	0.011162	0.035433	0.057185	0.019829	0.029304	0.005966	0.007509	0.181881	0.011533	0.01387	0.276932	0.051974	0.011594
2.068	0.109568	0.11914	0.016043	0.011457	0.040208	0.057754	0.020603	0.030454	0.006889	0.00789	0.162815	0.012084	0.013035	0.285091	0.054651	0.015817
2.072	0.105538	0.120284	0.016549	0.011738	0.045469	0.058349	0.021451	0.031661	0.008119	0.008325	0.144797	0.01264	0.012158	0.29425	0.057541	0.021027
2.076	0.101432	0.1206	0.017099	0.011998	0.051188	0.059228	0.022371	0.032968	0.00969	0.008818	0.127958	0.01322	0.011294	0.304851	0.060788	0.027384
2.08	0.097479	0.119987	0.017726	0.012234	0.05729	0.06069	0.023373	0.034431	0.011636	0.009374	0.112403	0.013843	0.010489	0.317229	0.064544	0.035067
2.084	0.093918	0.118466	0.018451	0.012449	0.063662	0.063009	0.024471	0.036079	0.013988	0.009992	0.098143	0.01452	0.009778	0.331473	0.068917	0.044264
2.088	0.090908	0.116121	0.019283	0.012644	0.070149	0.066409	0.025675	0.037909	0.016775	0.010664	0.085138	0.015253	0.009184	0.347343	0.073948	0.055156
2.092	0.088514	0.113091	0.020223	0.012817	0.076586	0.07107	0.026978	0.0399	0.020029	0.011383	0.073339	0.01603	0.008727	0.364244	0.079614	0.067898
2.096	0.086703	0.109515	0.021261	0.012957	0.082865	0.077123	0.02836	0.042008	0.023788	0.012149	0.062712	0.016829	0.008415	0.381245	0.085838	0.082596
2.1	0.085379	0.105518	0.022374	0.01305	0.088952	0.084639	0.029785	0.044158	0.028083	0.012966	0.053222	0.017619	0.008255	0.39717	0.092513	0.099303
2.104	0.084421	0.1012	0.023526	0.013088	0.094853	0.093614	0.031213	0.046283	0.032944	0.013835	0.044813	0.018369	0.008244	0.410806	0.09952	0.11802
2.108	0.083747	0.096627	0.02468	0.013067	0.100559	0.103974	0.032605	0.048352	0.038382	0.014758	0.037437	0.019072	0.008379	0.421225	0.106761	0.138674
2.112	0.083321	0.091881	0.025801	0.012979	0.105985	0.115553	0.033917	0.050359	0.044382	0.015724	0.03105	0.019727	0.008655	0.427795	0.114223	0.161099
2.116	0.083131	0.087046	0.026846	0.01281	0.111031	0.128107	0.035101	0.052269	0.050914	0.016717	0.025643	0.02035	0.009062	0.429902	0.122018	0.185053
2.12	0.083104	0.082241	0.027775	0.012548	0.115569	0.141305	0.036108	0.054006	0.057927	0.017718	0.021221	0.02095	0.009589	0.426889	0.130305	0.210301
2.124	0.083149	0.077564	0.02854	0.012192	0.119464	0.154689	0.036882	0.055467	0.065348	0.018708	0.017794	0.021537	0.010219	0.418367	0.139194	0.236628
2.128	0.083172	0.073114	0.029116	0.011766	0.122601	0.167655	0.03738	0.056568	0.073091	0.019664	0.015357	0.02215	0.010927	0.404491	0.148741	0.263773
2.132	0.083083	0.068997	0.029529	0.011334	0.124822	0.179507	0.037588	0.057312	0.081066	0.02056	0.013898	0.022859	0.011683	0.385934	0.158871	0.291338
2.136	0.082881	0.06529	0.029825	0.01098	0.125946	0.189598	0.037531	0.057775	0.089135	0.021383	0.013422	0.02377	0.012452	0.363516	0.169352	0.318727
2.14	0.082594	0.062008	0.030048	0.010795	0.125835	0.197529	0.037236	0.058079	0.097091	0.022114	0.013944	0.024993	0.013201	0.338146	0.179819	0.34522
2.144	0.082247	0.059109	0.030226	0.010871	0.124373	0.20305	0.036719	0.058368	0.104663	0.022727	0.015499	0.026631	0.013902	0.310882	0.189767	0.370105
2.148	0.081861	0.056557	0.03037	0.0113	0.121477	0.205873	0.036003	0.058758	0.111547	0.023197	0.018121	0.028772	0.014536	0.282686	0.198604	0.392667
2.152	0.081497	0.054331	0.030474	0.012173	0.117091	0.205811	0.035119	0.059319	0.117445	0.0235	0.021852	0.031492	0.015082	0.254367	0.205986	0.41211
2.156	0.081275	0.052429	0.030515	0.013576	0.111314	0.202853	0.034112	0.060081	0.122063	0.023619	0.026749	0.034854	0.015518	0.226609	0.211764	0.427562
2.16	0.081336	0.050858	0.030467	0.015592	0.104325	0.197179	0.033012	0.061024	0.125122	0.023527	0.032871	0.038908	0.015806	0.199923	0.216002	0.438119
2.164	0.0818	0.049592	0.030311	0.018301	0.096397	0.189101	0.03183	0.06211	0.126331	0.023206	0.040258	0.043675	0.015912	0.174665	0.218755	0.442933
2.168	0.082733	0.048601	0.03006	0.021784	0.087836	0.178932	0.030571	0.063313	0.125521	0.022664	0.048933	0.049162	0.015814	0.151098	0.219941	0.440995
2.172	0.084122	0.047885	0.029755	0.026115	0.078914	0.166987	0.029231	0.064592	0.122662	0.021932	0.058894	0.055356	0.015503	0.129432	0.219382	0.431657
2.176	0.0859	0.047472	0.029437	0.031352	0.069907	0.153624	0.027818	0.065859	0.117908	0.021044	0.07011	0.062215	0.014986	0.109918	0.21686	0.415086
2.18	0.088029	0.047442	0.029155	0.037529	0.061065	0.139353	0.026365	0.066982	0.111552	0.020031	0.082519	0.069654	0.014293	0.092845	0.212166	0.392265
2.184	0.090517	0.047907	0.028951	0.044647	0.052589	0.124713	0.024925	0.067785	0.104015	0.018935	0.096007	0.077519	0.013464	0.078439	0.205259	0.364715
2.188	0.093361	0.048951	0.028846	0.052678	0.04463	0.110171	0.023543	0.068099	0.095693	0.01779	0.110378	0.085581	0.012539	0.066866	0.196284	0.334087
2.192	0.096517	0.050613	0.028834	0.061564	0.037284	0.096094	0.022244	0.067806	0.086932	0.016621	0.125358	0.093549	0.011554	0.058239	0.185584	0.301835
2.196	0.099898	0.052874	0.028888	0.07121	0.030604	0.082757	0.021035	0.066857	0.078019	0.015449	0.140631	0.101118	0.010539	0.052615	0.173657	0.269146
2.2	0.103382	0.055669	0.028976	0.081465	0.024622	0.070366	0.019911	0.065282	0.069166	0.014284	0.155895	0.108039	0.009521	0.05003	0.161016	0.236939
2.204	0.106817	0.058889	0.029082	0.092129	0.019347	0.059068	0.018872	0.063229	0.060535	0.013124	0.170876	0.11419	0.008522	0.050494	0.148049	0.205878
2.208	0.11006	0.062387	0.029227	0.102951	0.014768	0.048945	0.017924	0.0609	0.052273	0.011969	0.185307	0.119496	0.007558	0.053992	0.135027	0.176444
2.212	0.113012	0.065984	0.029444	0.11366	0.010857	0.040018	0.017074	0.058485	0.044511	0.010826	0.198969	0.123927	0.006641	0.060482	0.122199	0.148963
2.216	0.11556	0.069497	0.029752	0.123947	0.007577	0.032257	0.016323	0.056141	0.037336	0.009712	0.211623	0.127432	0.005786	0.069881	0.109739	0.123673
2.22	0.117533	0.072741	0.030143	0.13345	0.004886	0.025598	0.015667	0.053974	0.030813	0.008644	0.222937	0.129904	0.005005	0.082052	0.097742	0.100739
2.224	0.118759	0.075522	0.030583	0.141802	0.002737	0.019957	0.015097	0.052051	0.024976	0.007639	0.23258	0.131176	0.004305	0.096779	0.08626	0.080247
2.228	0.119138	0.077643	0.031018	0.148646	0.001081	0.015249	0.0146	0.050411	0.019833	0.006712	0.240211	0.131083	0.003691	0.11377	0.075316	0.062217
2.232	0.118587	0.078929	0.031396	0.153749	0	0.011391	0.014163	0.049074	0.015368	0.00587	0.245412	0.12955	0.003162	0.132641	0.064938	0.046605
2.236	0.117014	0.079238	0.031682	0.156934	0	0.008305	0.013759	0.048019	0.011548	0.005119	0.247741	0.126583	0.002716	0.152887	0.055173	0.033313
2.24	0.114378	0.078493	0.031851	0.158058	0	0.005911	0.013358	0.047171	0.00833	0.004458	0.247053	0.122304	0.002347	0.173862	0.046094	0.022191
2.244	0.110735	0.076721	0.031875	0.156986	0	0.004132	0.012939	0.046424	0.005669	0.003882	0.243571	0.116952	0.002049	0.194765	0.037787	0.013061
2.248	0.106242	0.074051	0.031717	0.153668	0	0.002895	0.012496	0.045651	0.003513	0.003385	0.237756	0.110798	0.001812	0.214675	0.030312	0.005725
2.3	0.036367	0.037931	0.026804	0.040073	0.050593	0.011239	0.008995	0.042202	0	0.001396	0.105077	0.052231	0.001849	0.257339	0	0
2.304	0.032638	0.038003	0.026721	0.033937	0.060185	0.01257	0.008919	0.044642	0.000229	0.001391	0.093849	0.05149	0.002011	0.250054	0	0
2.308	0.029236	0.038386	0.026779	0.028595	0.070675	0.013971	0.008849	0.047824	0.000581	0.00139	0.082917	0.051791	0.002184	0.242165	0	0
2.312	0.026162	0.038983	0.027014	0.024048	0.082025	0.015463	0.008784	0.051827	0.000925	0.001391	0.072382	0.053333	0.002364	0.23375	0	0
2.316	0.023407	0.039699	0.027489	0.020292	0.09421	0.017061	0.008726	0.056697	0.001258	0.001398	0.062345	0.056359	0.002547	0.224907	0	0
2.32	0.020969	0.040468	0.0283	0.017346	0.107191	0.018786	0.008674	0.062451	0.001579	0.001412	0.0529	0.061127	0.002728	0.21568	0	0
2.324	0.018861	0.041247	0.02956	0.015245	0.120891	0.020657	0.008627	0.069084	0.001891	0.001438	0.044132	0.067891	0.002901	0.206207	0.000609	0
2.328	0.0171	0.042017	0.031364	0.014019	0.135191	0.022703	0.008589	0.076581	0.002197	0.00148	0.036115	0.076863	0.003065	0.19669	0.001486	0.000797
2.332	0.015694	0.042767	0.033784	0.013694	0.150004	0.024965	0.008565	0.084915	0.002504	0.001545	0.02889	0.088191	0.003224	0.187275	0.002417	0.001861
2.336	0.014652	0.043488	0.03687	0.014285	0.165323	0.027485	0.008565	0.094001	0.002821	0.001636	0.02248	0.101944	0.003382	0.178008	0.003398	0.002957
2.34	0.013977	0.044203	0.040649	0.015797	0.181195	0.030287	0.008595	0.103765	0.003157	0.001759	0.016887	0.118104	0.003552	0.168923	0.004429	0.004106
2.344	0.013665	0.044953	0.045153	0.018239	0.197654	0.033379	0.008657	0.114219	0.003523	0.001919	0.0121	0.136558	0.003742	0.160097	0.005508	0.005327
2.348	0.013709	0.045779	0.050442	0.021621	0.214657	0.036753	0.008752	0.12549	0.003928	0.002119	0.008094	0.157128	0.003966	0.151581	0.006629	0.006638
2.352	0.014098	0.046694	0.056571	0.025964	0.23202	0.040397	0.008881	0.1378	0.004377	0.002363	0.004836	0.179538	0.004232	0.143331	0.007778	0.008054
2.356	0.01481	0.047685	0.063559	0.031286	0.249572	0.04431	0.009048	0.15143	0.004876	0.002654	0.002288	0.203417	0.004544	0.135304	0.008939	0.009584
2.36	0.015821	0.048714	0.071414	0.037604	0.267146	0.048478	0.009251	0.166637	0.005426	0.002996	0.000409	0.22828	0.004908	0.12758	0.010084	0.011228
2.364	0.017101	0.049722	0.080149	0.044963	0.284471	0.052904	0.009488	0.18366	0.006026	0.003387	0	0.253541	0.005326	0.120442	0.011178	0.012976
2.368	0.018613	0.050631	0.089805	0.053429	0.301247	0.057595	0.009751	0.202714	0.006666	0.003829	0	0.278717	0.0058	0.114261	0.012182	0.014805
2.372	0.020309	0.051356	0.100454	0.063054	0.317006	0.062527	0.010038	0.223912	0.007336	0.004317	0	0.30348	0.006341	0.109351	0.013053	0.016678
2.376	0.022144	0.051826	0.112192	0.073885	0.331326	0.067643	0.010339	0.247296	0.008018	0.004845	0	0.327698	0.006963	0.10591	0.013758	0.018544
2.38	0.024075	0.052012	0.125183	0.086002	0.344007	0.072875	0.010648	0.272955	0.008687	0.005406	0	0.351382	0.007688	0.104025	0.014285	0.020334
2.384	0.026074	0.051911	0.13959	0.099502	0.354988	0.078201	0.010951	0.300944	0.00932	0.00599	0.001289	0.374578	0.008542	0.103677	0.014637	0.021963
2.388	0.028136	0.051536	0.155531	0.114459	0.364088	0.083647	0.011226	0.331172	0.009888	0.006589	0.0033	0.397262	0.009556	0.104753	0.014803	0.023339
2.392	0.030257	0.051004	0.173046	0.130921	0.371005	0.089206	0.011441	0.363411	0.010368	0.007193	0.005846	0.419312	0.010761	0.107045	0.014771	0.024375
2.396	0.032417	0.050528	0.192104	0.148917	0.375413	0.094827	0.011567	0.397349	0.010738	0.00779	0.008945	0.440424	0.012185	0.110288	0.014527	0.025002
2.4	0.034573	0.050371	0.212724	0.16853	0.376767	0.100413	0.011587	0.432551	0.010982	0.00837	0.012617	0.460314	0.013855	0.114215	0.014079	0.025185
2.404	0.03667	0.050765	0.234974	0.189883	0.374488	0.105836	0.011495	0.468626	0.011089	0.008927	0.016879	0.478747	0.015789	0.118621	0.013456	0.024908
2.408	0.038649	0.051927	0.258845	0.213048	0.368273	0.11094	0.011301	0.505253	0.011048	0.009459	0.021751	0.495549	0.017998	0.123315	0.012707	0.024209
2.412	0.040455	0.054032	0.284305	0.237983	0.358113	0.115535	0.011024	0.541983	0.010863	0.009968	0.027252	0.510689	0.020475	0.128108	0.011878	0.023157
2.416	0.042041	0.057198	0.311327	0.264561	0.344188	0.119415	0.01068	0.578289	0.010543	0.010459	0.033383	0.524491	0.0232	0.132808	0.01101	0.02185
2.42	0.04338	0.061485	0.339818	0.292623	0.326916	0.122396	0.010283	0.613371	0.010114	0.010939	0.040124	0.537378	0.026137	0.137194	0.010129	0.020378
2.424	0.044465	0.066896	0.369513	0.321952	0.307034	0.124318	0.009857	0.646222	0.00961	0.01142	0.047421	0.549504	0.029233	0.141071	0.00926	0.018828
2.428	0.045285	0.073377	0.399914	0.352264	0.285356	0.125044	0.00943	0.676183	0.00907	0.011905	0.05518	0.560718	0.032433	0.144331	0.008424	0.017278
2.432	0.045818	0.080814	0.43035	0.383147	0.262692	0.124474	0.009033	0.703084	0.008529	0.012385	0.06326	0.570695	0.03568	0.146971	0.007636	0.015791
2.436	0.046044	0.089055	0.460162	0.414099	0.239713	0.122618	0.008698	0.726848	0.008012	0.012848	0.071469	0.57912	0.038929	0.149004	0.006914	0.01441
2.44	0.045965	0.097927	0.488634	0.444461	0.216902	0.119559	0.008448	0.747548	0.007538	0.013275	0.079556	0.585628	0.042131	0.150385	0.006272	0.013166
2.444	0.045593	0.107223	0.514855	0.473349	0.194528	0.115468	0.008301	0.765378	0.007119	0.013641	0.087224	0.59006	0.045241	0.151113	0.005717	0.012077
2.448	0.044937	0.116725	0.537964	0.499815	0.17278	0.110522	0.008267	0.780534	0.006758	0.013912	0.094164	0.592324	0.048213	0.151258	0.005254	0.011152
2.452	0.044017	0.126251	0.55741	0.522809	0.151833	0.104857	0.008354	0.793016	0.006457	0.01405	0.100149	0.59221	0.050995	0.15087	0.004883	0.010391
2.456	0.04286	0.135625	0.573102	0.541249	0.131862	0.09862	0.008569	0.802832	0.006216	0.014024	0.105069	0.589446	0.053514	0.149951	0.0046	0.009788
2.46	0.041481	0.144677	0.585044	0.55411	0.113059	0.091989	0.008923	0.8101	0.00603	0.013819	0.10892	0.58372	0.055702	0.148511	0.0044	0.009327
2.464	0.039894	0.153225	0.592926	0.560476	0.09561	0.085148	0.009422	0.815053	0.005898	0.013447	0.111763	0.574663	0.057493	0.146632	0.004273	0.008988
2.468	0.038133	0.161186	0.5966	0.559938	0.079655	0.078271	0.010077	0.817843	0.005814	0.012947	0.113758	0.562265	0.058836	0.144462	0.004206	0.008752
2.472	0.036247	0.16857	0.59605	0.552998	0.065297	0.071515	0.010896	0.81869	0.00577	0.012363	0.115078	0.547024	0.059706	0.14209	0.004186	0.008598
2.476	0.034307	0.175352	0.591379	0.540628	0.052585	0.064995	0.01189	0.818084	0.005756	0.011737	0.115824	0.52955	0.060094	0.139532	0.004198	0.008505
2.48	0.032387	0.181406	0.582522	0.523857	0.041509	0.058772	0.013063	0.81631	0.005757	0.011108	0.116011	0.510361	0.059986	0.136774	0.004229	0.008451
2.484	0.030567	0.186544	0.569238	0.503699	0.03203	0.052881	0.01441	0.813408	0.005757	0.010509	0.1156	0.489684	0.05936	0.133783	0.004265	0.008415
2.488	0.028917	0.190546	0.551569	0.481023	0.024068	0.047353	0.015919	0.809225	0.005743	0.00996	0.114541	0.46771	0.05818	0.130506	0.004299	0.008383
2.492	0.027483	0.193174	0.529898	0.456463	0.017511	0.042209	0.017575	0.803512	0.005705	0.009473	0.112772	0.444888	0.056432	0.126921	0.004323	0.008342
2.496	0.02628	0.194135	0.504786	0.430442	0.01222	0.037465	0.019355	0.795564	0.005637	0.009052	0.110203	0.421666	0.054097	0.123021	0.00433	0.008276
2.5	0.025301	0.193161	0.47666	0.403305	0.008042	0.033124	0.021228	0.784086	0.005529	0.008691	0.106715	0.398411	0.051168	0.118828	0.004313	0.00817
2.504	0.024522	0.190047	0.446069	0.375481	0.004829	0.029173	0.023146	0.76779	0.005371	0.008379	0.1022	0.375273	0.047705	0.114407	0.004266	0.008009
2.508	0.023904	0.184699	0.413655	0.347351	0.002445	0.025604	0.025038	0.746487	0.005158	0.008097	0.096652	0.352042	0.043818	0.109824	0.004187	0.007783
2.512	0.023417	0.177184	0.380269	0.319126	0.000771	0.022421	0.026818	0.721114	0.004886	0.007828	0.090174	0.328427	0.039669	0.105163	0.004074	0.007489
2.516	0.023037	0.167631	0.346632	0.290939	0	0.019644	0.028385	0.692638	0.004562	0.007557	0.082966	0.30443	0.035404	0.10055	0.003933	0.007135
2.52	0.022754	0.15631	0.313153	0.262939	0	0.017277	0.029662	0.66162	0.004193	0.007273	0.075255	0.280191	0.031155	0.096099	0.003766	0.006734
2.524	0.022551	0.143604	0.28006	0.23519	0	0.015309	0.030603	0.628407	0.003792	0.006966	0.067306	0.255762	0.027039	0.091835	0.003581	0.0063
2.528	0.022404	0.129987	0.247561	0.207764	0	0.013711	0.031203	0.59332	0.00337	0.006631	0.059369	0.231189	0.023146	0.087731	0.003384	0.005845
2.532	0.022283	0.115954	0.21605	0.181034	0	0.012444	0.031492	0.556971	0.002942	0.006268	0.051663	0.20669	0.019542	0.083745	0.003184	0.00538
2.536	0.022172	0.101975	0.186049	0.155521	0.000412	0.011459	0.031509	0.519909	0.00252	0.005891	0.044348	0.182568	0.016272	0.079823	0.002985	0.004917
2.54	0.022056	0.088421	0.157977	0.131638	0.001268	0.010701	0.031315	0.482604	0.002123	0.005519	0.037542	0.159163	0.01336	0.075939	0.002793	0.004468
2.544	0.021934	0.075582	0.132157	0.10968	0.002223	0.010125	0.031002	0.445537	0.001767	0.005175	0.031322	0.136822	0.010817	0.072131	0.00261	0.004042
2.548	0.021836	0.063671	0.10879	0.089817	0.003228	0.009698	0.030661	0.408952	0.001471	0.004896	0.025737	0.115867	0.008636	0.068418	0.00244	0.003647
2.552	0.021785	0.052832	0.087965	0.072115	0.004239	0.009403	0.030367	0.372776	0.001252	0.004727	0.020807	0.09655	0.006806	0.064787	0.002283	0.003288
2.556	0.021794	0.043147	0.069668	0.056561	0.005222	0.009231	0.030177	0.336793	0.001132	0.004718	0.01653	0.079047	0.005306	0.061243	0.002141	0.002966
2.56	0.021863	0.034644	0.053802	0.043082	0.006147	0.009172	0.030123	0.300948	0.00113	0.004925	0.012884	0.063447	0.004112	0.057853	0.002018	0.002684
2.564	0.021977	0.027306	0.040237	0.031585	0.006996	0.009207	0.030227	0.265492	0.001269	0.005398	0.009832	0.049772	0.003193	0.054804	0.001914	0.002444
2.568	0.022112	0.021081	0.028851	0.021959	0.007758	0.009314	0.030497	0.230989	0.001577	0.006191	0.00733	0.038005	0.002517	0.052392	0.001832	0.002244
2.572	0.022236	0.015897	0.019511	0.014079	0.008426	0.009465	0.03095	0.19818	0.002081	0.007356	0.005322	0.028088	0.002046	0.050935	0.001774	0.002085
2.576	0.022317	0.011668	0.012064	0.007803	0.008998	0.009627	0.031601	0.167743	0.002817	0.008947	0.003753	0.019927	0.001743	0.050717	0.001743	0.001963
2.58	0.022347	0.008297	0.006345	0.002978	0.009472	0.009775	0.032469	0.140164	0.003815	0.011018	0.002565	0.013398	0.00157	0.051989	0.001741	0.001878
2.584	0.022325	0.005678	0.002183	0	0.009861	0.009897	0.033556	0.115754	0.005109	0.013611	0.0017	0.008354	0.001493	0.054958	0.001769	0.001832
2.588	0.022247	0.0037	0	0	0.010177	0.009996	0.034838	0.094666	0.006727	0.016762	0.001102	0.004647	0.001484	0.059779	0.001828	0.001823
2.592	0.022114	0.002263	0	0	0.010426	0.010074	0.03628	0.076911	0.0087	0.020493	0.000716	0.002126	0.001523	0.066545	0.001918	0.001851
2.596	0.02193	0.001271	0	0	0.01061	0.010129	0.037841	0.062386	0.011053	0.024814	0.000495	0.000646	0.001598	0.075288	0.002038	0.001919
2.6	0.021707	0.00064	0	0	0.010722	0.010157	0.039473	0.050901	0.013802	0.029724	0.000399	7.1e-05	0.001703	0.085966	0.002185	0.002028
2.604	0.021462	0.00029	0	0	0.010759	0.010153	0.041126	0.042208	0.016956	0.035208	0.000393	0.000266	0.001836	0.098451	0.00236	0.002181
2.608	0.021208	0.000151	0.00039	0	0.010716	0.010118	0.04272	0.036031	0.020505	0.041227	0.000453	0.001099	0.001999	0.112529	0.002561	0.002381
2.612	0.020941	0.000167	0.002483	0	0.010597	0.010051	0.044148	0.032082	0.024424	0.047705	0.000558	0.002444	0.002193	0.127889	0.002787	0.002633
2.616	0.02065	0.000288	0.004884	0.000316	0.010418	0.009954	0.045324	0.030061	0.028669	0.054517	0.000694	0.004177	0.002423	0.144123	0.003034	0.002939
2.62	0.020318	0.000478	0.007462	0.002211	0.010197	0.009826	0.046168	0.029642	0.03317	0.061484	0.000851	0.006187	0.002692	0.160725	0.003297	0.003301
2.624	0.01993	0.000707	0.01009	0.004169	0.009948	0.009683	0.04663	0.030493	0.037825	0.068377	0.00102	0.008376	0.003003	0.177146	0.00357	0.003719
2.628	0.019495	0.000951	0.012662	0.00611	0.009686	0.009546	0.046711	0.0323	0.042499	0.074905	0.001198	0.010657	0.003359	0.192888	0.003845	0.004189
2.632	0.019026	0.001196	0.015103	0.007972	0.009424	0.009437	0.0464	0.034785	0.04703	0.080716	0.001379	0.012966	0.003758	0.207515	0.004113	0.004706
2.636	0.018536	0.001432	0.017376	0.009722	0.009173	0.009376	0.045706	0.03772	0.051242	0.085456	0.001562	0.015262	0.0042	0.220731	0.004367	0.005258
2.64	0.018041	0.001656	0.019462	0.011337	0.00894	0.009375	0.044684	0.040889	0.054953	0.088795	0.001745	0.017515	0.00468	0.232502	0.004597	0.005834
2.644	0.017557	0.001871	0.021337	0.0128	0.008729	0.009445	0.043399	0.044083	0.057998	0.090487	0.001929	0.019693	0.005195	0.242947	0.004792	0.006421
2.648	0.017093	0.002076	0.022986	0.014097	0.00854	0.009594	0.041928	0.047127	0.060228	0.090456	0.002114	0.021757	0.005742	0.252143	0.004942	0.007005
2.652	0.01666	0.002276	0.024409	0.01523	0.008372	0.00982	0.04035	0.049908	0.061565	0.088747	0.002301	0.02367	0.00632	0.260121	0.005047	0.007575
2.656	0.016265	0.00247	0.025639	0.016224	0.008218	0.010121	0.038725	0.052395	0.062021	0.085561	0.002492	0.025392	0.006927	0.267087	0.005106	0.008126
2.66	0.015909	0.00266	0.026723	0.017111	0.008069	0.010488	0.037083	0.05461	0.061678	0.081152	0.002688	0.026901	0.007558	0.273484	0.005129	0.008657
2.664	0.015588	0.002845	0.027693	0.017916	0.007916	0.010908	0.035429	0.056566	0.060627	0.075812	0.00289	0.028179	0.0082	0.279752	0.005132	0.00918
2.668	0.0153	0.003023	0.028561	0.018652	0.007749	0.011359	0.033733	0.058251	0.058948	0.069806	0.003097	0.02923	0.008834	0.286212	0.005136	0.009714
2.672	0.015042	0.003192	0.029321	0.019318	0.007565	0.011812	0.031958	0.05963	0.056773	0.063389	0.003309	0.03007	0.009433	0.29319	0.005157	0.010274
