datacolumns 17
datarows 1115
time	addmag_r	bicfemlh_r	gaslat_r	gasmed_r	gmax_r	gmed_r	gra_r	perlong_r	recfem_r	sar_r	semimem_r	sol_r	tfl_r	tibant_r	vaslat_r	vasmed_r
2.526	0.124526	0.090656	0.006163	0.007158	0.015907	0.084165	0.03441	0.00986	0.00274	0.031655	0.133509	0.003513	0.015687	0.088235	0.004718	0.004206
2.5265	0.12361	0.090502	0.006133	0.0071	0.015931	0.084325	0.034209	0.009785	0.002732	0.030957	0.132778	0.003497	0.015543	0.087426	0.004694	0.004165
2.527	0.122686	0.090332	0.006104	0.007042	0.015954	0.084491	0.034011	0.009712	0.002724	0.030272	0.132026	0.003481	0.0154	0.086619	0.00467	0.004123
2.5275	0.121755	0.090148	0.006075	0.006983	0.015976	0.084663	0.033817	0.009639	0.002716	0.029602	0.131254	0.003466	0.015258	0.085815	0.004644	0.004082
2.528	0.120817	0.089948	0.006046	0.006923	0.015999	0.084841	0.033627	0.009566	0.002709	0.028944	0.130462	0.00345	0.015118	0.085013	0.004619	0.004042
2.5285	0.119871	0.089734	0.006018	0.006862	0.016021	0.085026	0.033439	0.009494	0.002701	0.0283	0.129651	0.003433	0.014979	0.084215	0.004593	0.004001
2.529	0.118918	0.089506	0.005989	0.006801	0.016043	0.085218	0.033255	0.009422	0.002694	0.027669	0.128821	0.003417	0.014841	0.083419	0.004566	0.003961
2.5295	0.117959	0.089262	0.005961	0.006739	0.016064	0.085417	0.033073	0.009351	0.002687	0.027051	0.127973	0.0034	0.014705	0.082625	0.00454	0.003921
2.53	0.116991	0.089004	0.005933	0.006676	0.016085	0.085623	0.032893	0.009281	0.002681	0.026446	0.127107	0.003383	0.014571	0.081834	0.004512	0.003881
2.5305	0.116017	0.088731	0.005905	0.006613	0.016105	0.085836	0.032716	0.009211	0.002674	0.025853	0.126224	0.003366	0.014438	0.081046	0.004485	0.003841
2.531	0.115036	0.088444	0.005878	0.006549	0.016125	0.086057	0.032541	0.009142	0.002668	0.025273	0.125323	0.003349	0.014308	0.080259	0.004457	0.003802
2.5315	0.114047	0.088142	0.005851	0.006484	0.016145	0.086285	0.032367	0.009073	0.002662	0.024705	0.124407	0.003331	0.014179	0.079475	0.004429	0.003763
2.532	0.113051	0.087825	0.005824	0.006418	0.016163	0.086521	0.032194	0.009005	0.002656	0.024149	0.123474	0.003313	0.014053	0.078693	0.0044	0.003724
2.5325	0.112048	0.087494	0.005797	0.006352	0.016181	0.086764	0.032023	0.008937	0.002651	0.023606	0.122526	0.003294	0.013928	0.077912	0.004371	0.003686
2.533	0.111037	0.087148	0.005771	0.006286	0.016199	0.087016	0.031853	0.00887	0.002646	0.023074	0.121563	0.003276	0.013806	0.077133	0.004342	0.003647
2.5335	0.110019	0.086787	0.005745	0.006219	0.016216	0.087275	0.031683	0.008804	0.002641	0.022554	0.120585	0.003257	0.013687	0.076356	0.004312	0.003609
2.534	0.108994	0.086412	0.005719	0.006151	0.016232	0.087542	0.031514	0.008738	0.002636	0.022045	0.119592	0.003237	0.013569	0.075579	0.004283	0.003572
2.5345	0.107961	0.086022	0.005693	0.006082	0.016247	0.087817	0.031346	0.008674	0.002632	0.021548	0.118585	0.003217	0.013455	0.074804	0.004253	0.003534
2.535	0.10692	0.085617	0.005668	0.006013	0.016262	0.0881	0.031178	0.008609	0.002628	0.021061	0.117564	0.003197	0.013343	0.07403	0.004222	0.003497
2.5355	0.105872	0.085198	0.005643	0.005943	0.016275	0.088391	0.03101	0.008546	0.002624	0.020586	0.11653	0.003176	0.013234	0.073256	0.004192	0.00346
2.536	0.104816	0.084763	0.005618	0.005873	0.016288	0.08869	0.030842	0.008483	0.00262	0.020121	0.115483	0.003154	0.013128	0.072483	0.004161	0.003423
2.5365	0.103753	0.084314	0.005593	0.005802	0.016301	0.088996	0.030674	0.008421	0.002617	0.019667	0.114422	0.003132	0.013026	0.071711	0.00413	0.003387
2.537	0.102682	0.083851	0.005569	0.00573	0.016312	0.089311	0.030505	0.008359	0.002614	0.019224	0.11335	0.00311	0.012926	0.070939	0.004098	0.003351
2.5375	0.101604	0.083373	0.005545	0.005658	0.016322	0.089634	0.030336	0.008298	0.002611	0.01879	0.112265	0.003087	0.012829	0.070169	0.004067	0.003315
2.538	0.10052	0.08288	0.005521	0.005585	0.016331	0.089964	0.030166	0.008238	0.002608	0.018367	0.111169	0.003064	0.012736	0.069399	0.004035	0.003279
2.5385	0.099429	0.082374	0.005498	0.005511	0.01634	0.090303	0.029996	0.008179	0.002606	0.017954	0.110062	0.003039	0.012647	0.06863	0.004003	0.003244
2.539	0.098332	0.081854	0.005475	0.005437	0.016347	0.090649	0.029825	0.00812	0.002604	0.017551	0.108944	0.003015	0.01256	0.067862	0.003971	0.003209
2.5395	0.097229	0.08132	0.005452	0.005362	0.016354	0.091003	0.029653	0.008062	0.002602	0.017157	0.107817	0.002989	0.012478	0.067095	0.003939	0.003174
2.54	0.09612	0.080772	0.005429	0.005287	0.016359	0.091365	0.02948	0.008005	0.0026	0.016773	0.10668	0.002963	0.012399	0.066329	0.003907	0.00314
2.5405	0.095007	0.080212	0.005406	0.005211	0.016364	0.091734	0.029306	0.007949	0.002598	0.016399	0.105534	0.002937	0.012324	0.065565	0.003875	0.003106
2.541	0.093889	0.079639	0.005384	0.005134	0.016367	0.092111	0.029132	0.007894	0.002597	0.016034	0.104381	0.002909	0.012253	0.064801	0.003842	0.003072
2.5415	0.092766	0.079054	0.005362	0.005056	0.01637	0.092496	0.028956	0.007839	0.002596	0.015679	0.103219	0.002881	0.012185	0.064039	0.00381	0.003038
2.542	0.09164	0.078457	0.00534	0.004978	0.016371	0.092888	0.02878	0.007786	0.002596	0.015332	0.102051	0.002853	0.012122	0.063278	0.003777	0.003005
2.5425	0.090511	0.077849	0.005319	0.0049	0.016372	0.093287	0.028603	0.007733	0.002595	0.014995	0.100876	0.002823	0.012062	0.062519	0.003744	0.002972
2.543	0.08938	0.07723	0.005298	0.00482	0.016371	0.093694	0.028425	0.007681	0.002595	0.014667	0.099694	0.002793	0.012007	0.061762	0.003711	0.002939
2.5435	0.088246	0.0766	0.005276	0.00474	0.016369	0.094107	0.028246	0.00763	0.002595	0.014347	0.098507	0.002762	0.011956	0.061006	0.003679	0.002907
2.544	0.087111	0.075961	0.005255	0.004659	0.016367	0.094527	0.028066	0.00758	0.002595	0.014037	0.097315	0.00273	0.011909	0.060253	0.003646	0.002874
2.5445	0.085975	0.075311	0.005235	0.004578	0.016363	0.094954	0.027885	0.007531	0.002595	0.013735	0.096118	0.002698	0.011867	0.059502	0.003613	0.002843
2.545	0.084838	0.074653	0.005214	0.004496	0.016358	0.095388	0.027703	0.007483	0.002596	0.013441	0.094917	0.002665	0.011829	0.058753	0.003581	0.002811
2.5455	0.0837	0.073986	0.005194	0.004414	0.016352	0.095828	0.02752	0.007436	0.002596	0.013156	0.093712	0.00263	0.011795	0.058008	0.003548	0.00278
2.546	0.082563	0.073311	0.005173	0.00433	0.016345	0.096274	0.027336	0.00739	0.002597	0.01288	0.092504	0.002596	0.011766	0.057265	0.003516	0.002749
2.5465	0.081427	0.072628	0.005153	0.004247	0.016337	0.096726	0.027151	0.007344	0.002598	0.012612	0.091294	0.00256	0.011741	0.056526	0.003483	0.002719
2.547	0.080291	0.071938	0.005133	0.004162	0.016327	0.097184	0.026965	0.0073	0.0026	0.012352	0.09008	0.002523	0.01172	0.05579	0.003451	0.002689
2.5475	0.079157	0.07124	0.005113	0.004077	0.016317	0.097648	0.026778	0.007257	0.002601	0.012101	0.088865	0.002486	0.011705	0.055058	0.003419	0.002659
2.548	0.078024	0.070536	0.005094	0.003991	0.016306	0.098117	0.02659	0.007215	0.002603	0.011857	0.087649	0.002448	0.011693	0.054331	0.003387	0.00263
2.5485	0.076894	0.069826	0.005074	0.003905	0.016293	0.098591	0.0264	0.007174	0.002605	0.011622	0.086431	0.002409	0.011687	0.053607	0.003355	0.002601
2.549	0.075765	0.06911	0.005054	0.003818	0.016279	0.09907	0.02621	0.007134	0.002607	0.011394	0.085213	0.002369	0.011685	0.052888	0.003324	0.002572
2.5495	0.074639	0.068388	0.005035	0.003731	0.016264	0.099553	0.026018	0.007094	0.002609	0.011175	0.083995	0.002329	0.011687	0.052174	0.003292	0.002543
2.55	0.073515	0.067662	0.005015	0.003643	0.016248	0.100041	0.025826	0.007056	0.002611	0.010963	0.082777	0.002287	0.011695	0.051465	0.003261	0.002515
2.5505	0.072395	0.066931	0.004996	0.003554	0.016231	0.100534	0.025632	0.007019	0.002613	0.010758	0.08156	0.002245	0.011707	0.050761	0.00323	0.002488
2.551	0.071277	0.066197	0.004976	0.003465	0.016213	0.10103	0.025438	0.006983	0.002616	0.010562	0.080344	0.002202	0.011724	0.050062	0.0032	0.00246
2.5515	0.070164	0.065458	0.004957	0.003376	0.016193	0.101531	0.025243	0.006948	0.002618	0.010372	0.07913	0.002159	0.011745	0.049368	0.003169	0.002433
2.552	0.069053	0.064717	0.004938	0.003285	0.016173	0.102035	0.025047	0.006914	0.002621	0.01019	0.077917	0.002114	0.011772	0.04868	0.003139	0.002407
2.5525	0.067947	0.063974	0.004918	0.003195	0.016151	0.102542	0.024851	0.006881	0.002624	0.010015	0.076707	0.002069	0.011803	0.047999	0.003109	0.002381
2.553	0.066845	0.063229	0.004899	0.003103	0.016128	0.103054	0.024653	0.00685	0.002627	0.009848	0.0755	0.002023	0.011839	0.047323	0.003079	0.002355
2.5535	0.065747	0.062482	0.00488	0.003011	0.016103	0.103568	0.024455	0.006819	0.00263	0.009687	0.074296	0.001976	0.01188	0.046653	0.00305	0.002329
2.554	0.064653	0.061735	0.004861	0.002919	0.016077	0.104086	0.024256	0.006789	0.002633	0.009533	0.073095	0.001928	0.011925	0.045989	0.003021	0.002304
2.5545	0.063565	0.060987	0.004841	0.002826	0.016051	0.104606	0.024056	0.00676	0.002636	0.009386	0.071899	0.00188	0.011975	0.045332	0.002992	0.002279
2.555	0.062482	0.06024	0.004822	0.002733	0.016022	0.105129	0.023855	0.006732	0.00264	0.009245	0.070707	0.001831	0.012031	0.044682	0.002964	0.002255
2.5555	0.061405	0.059494	0.004803	0.002639	0.015993	0.105655	0.023654	0.006706	0.002643	0.009111	0.06952	0.001781	0.012091	0.044039	0.002936	0.002231
2.556	0.060333	0.058749	0.004783	0.002544	0.015962	0.106183	0.023452	0.00668	0.002647	0.008983	0.068338	0.00173	0.012155	0.043402	0.002909	0.002207
2.5565	0.059267	0.058006	0.004764	0.002449	0.015931	0.106713	0.023249	0.006656	0.00265	0.008861	0.067163	0.001679	0.012225	0.042773	0.002881	0.002184
2.557	0.058207	0.057267	0.004744	0.002353	0.015898	0.107246	0.023045	0.006632	0.002654	0.008746	0.065994	0.001627	0.012299	0.04215	0.002854	0.002161
2.5575	0.057153	0.05653	0.004725	0.002257	0.015864	0.107781	0.022841	0.006609	0.002658	0.008636	0.064831	0.001574	0.012378	0.041535	0.002828	0.002139
2.558	0.056106	0.055797	0.004705	0.00216	0.015829	0.108319	0.022636	0.006588	0.002661	0.008533	0.063676	0.001521	0.012462	0.040928	0.002802	0.002117
2.5585	0.055066	0.055068	0.004685	0.002063	0.015793	0.10886	0.02243	0.006567	0.002665	0.008435	0.062529	0.001467	0.012551	0.040328	0.002776	0.002095
2.559	0.054032	0.054344	0.004665	0.001965	0.015755	0.109403	0.022224	0.006548	0.002669	0.008343	0.06139	0.001412	0.012644	0.039735	0.002751	0.002074
2.5595	0.053006	0.053625	0.004645	0.001867	0.015717	0.10995	0.022016	0.006529	0.002673	0.008256	0.06026	0.001356	0.012742	0.03915	0.002726	0.002053
2.56	0.051987	0.052912	0.004625	0.001768	0.015678	0.1105	0.021808	0.006512	0.002677	0.008175	0.059138	0.0013	0.012845	0.038573	0.002702	0.002032
2.5605	0.050975	0.052205	0.004605	0.001669	0.015638	0.111054	0.021599	0.006495	0.002681	0.008099	0.058026	0.001243	0.012953	0.038004	0.002678	0.002012
2.561	0.049971	0.051504	0.004585	0.001569	0.015596	0.111612	0.021389	0.00648	0.002685	0.008027	0.056924	0.001186	0.013066	0.037443	0.002654	0.001992
2.5615	0.048975	0.050811	0.004565	0.001469	0.015554	0.112173	0.021178	0.006465	0.002689	0.007961	0.055832	0.001128	0.013183	0.036889	0.002632	0.001973
2.562	0.047988	0.050124	0.004544	0.001368	0.015511	0.112738	0.020966	0.006452	0.002693	0.0079	0.05475	0.001069	0.013306	0.036343	0.002609	0.001954
2.5625	0.047008	0.049445	0.004524	0.001266	0.015468	0.113309	0.020754	0.00644	0.002698	0.007844	0.05368	0.00101	0.013433	0.035805	0.002587	0.001935
2.563	0.046038	0.048775	0.004503	0.001164	0.015423	0.113884	0.02054	0.006428	0.002702	0.007792	0.05262	0.00095	0.013565	0.035275	0.002565	0.001917
2.5635	0.045075	0.048113	0.004482	0.001061	0.015378	0.114464	0.020326	0.006418	0.002706	0.007744	0.051572	0.000889	0.013701	0.034753	0.002544	0.001899
2.564	0.044122	0.047459	0.004462	0.000958	0.015332	0.11505	0.02011	0.006408	0.00271	0.007701	0.050536	0.000828	0.013843	0.034239	0.002524	0.001882
2.5645	0.043178	0.046815	0.004441	0.000854	0.015286	0.115642	0.019894	0.0064	0.002714	0.007663	0.049511	0.000766	0.013989	0.033733	0.002504	0.001864
2.565	0.042243	0.04618	0.004419	0.00075	0.015239	0.116241	0.019677	0.006392	0.002719	0.007628	0.048499	0.000704	0.01414	0.033234	0.002484	0.001848
2.5655	0.041317	0.045555	0.004398	0.000645	0.015192	0.116847	0.019459	0.006386	0.002723	0.007597	0.0475	0.000641	0.014296	0.032744	0.002465	0.001831
2.566	0.0404	0.04494	0.004377	0.000539	0.015145	0.117459	0.019239	0.006381	0.002727	0.007571	0.046513	0.000578	0.014457	0.032261	0.002447	0.001815
2.5665	0.039494	0.044335	0.004355	0.000433	0.015097	0.11808	0.019019	0.006377	0.002731	0.007548	0.04554	0.000514	0.014622	0.031786	0.002429	0.001799
2.567	0.038596	0.043741	0.004334	0.000327	0.015049	0.118708	0.018798	0.006374	0.002736	0.007529	0.044579	0.00045	0.014792	0.031318	0.002412	0.001784
2.5675	0.037709	0.043157	0.004312	0.00022	0.015001	0.119344	0.018575	0.006372	0.00274	0.007513	0.043632	0.000385	0.014967	0.030859	0.002395	0.001769
2.568	0.036832	0.042585	0.00429	0.000112	0.014953	0.11999	0.018352	0.006371	0.002744	0.007501	0.042699	0.00032	0.015147	0.030406	0.002379	0.001754
2.5685	0.035964	0.042024	0.004268	4e-06	0.014906	0.120644	0.018127	0.006372	0.002748	0.007493	0.041779	0.000255	0.015331	0.029962	0.002363	0.00174
2.569	0.035107	0.041475	0.004246	0	0.014858	0.121308	0.017902	0.006374	0.002752	0.007487	0.040874	0.000189	0.01552	0.029524	0.002348	0.001726
2.5695	0.03426	0.040937	0.004224	0	0.01481	0.121982	0.017675	0.006376	0.002756	0.007485	0.039983	0.000123	0.015714	0.029094	0.002333	0.001712
2.57	0.033423	0.040411	0.004202	0	0.014763	0.122667	0.017447	0.006381	0.002761	0.007486	0.039105	5.7e-05	0.015912	0.028672	0.002319	0.001698
2.5705	0.032596	0.039898	0.004179	0	0.014716	0.123362	0.017219	0.006386	0.002765	0.00749	0.038243	0	0.016114	0.028256	0.002305	0.001685
2.571	0.03178	0.039396	0.004157	0	0.014669	0.124068	0.016989	0.006393	0.002768	0.007497	0.037394	0	0.016321	0.027848	0.002292	0.001673
2.5715	0.030974	0.038908	0.004134	0	0.014623	0.124786	0.016759	0.006401	0.002772	0.007507	0.036561	0	0.016533	0.027447	0.00228	0.00166
2.572	0.030179	0.038431	0.004112	0	0.014578	0.125516	0.016527	0.00641	0.002776	0.00752	0.035742	0	0.016748	0.027052	0.002268	0.001648
2.5725	0.029394	0.037968	0.004089	0	0.014533	0.126257	0.016295	0.00642	0.00278	0.007535	0.034938	0	0.016968	0.026665	0.002257	0.001636
2.573	0.02862	0.037518	0.004066	0	0.014488	0.12701	0.016062	0.006432	0.002784	0.007553	0.034149	0	0.017193	0.026284	0.002246	0.001625
2.5735	0.027856	0.03708	0.004043	0	0.014445	0.127776	0.015828	0.006445	0.002787	0.007573	0.033374	0	0.017421	0.025909	0.002236	0.001614
2.574	0.027103	0.036656	0.00402	0	0.014402	0.128554	0.015594	0.00646	0.002791	0.007596	0.032615	0	0.017653	0.025541	0.002227	0.001603
2.5745	0.026361	0.036245	0.003997	0	0.01436	0.129344	0.015359	0.006475	0.002794	0.007621	0.031871	0	0.01789	0.025179	0.002218	0.001592
2.575	0.02563	0.035848	0.003974	0	0.014319	0.130148	0.015124	0.006493	0.002798	0.007648	0.031142	0	0.01813	0.024823	0.00221	0.001582
2.5755	0.024909	0.035464	0.003951	0	0.014278	0.130964	0.014888	0.006511	0.002801	0.007677	0.030428	0	0.018374	0.024473	0.002202	0.001572
2.576	0.024199	0.035093	0.003928	0	0.014239	0.131793	0.014651	0.006531	0.002804	0.007709	0.02973	0	0.018622	0.024128	0.002195	0.001563
2.5765	0.0235	0.034737	0.003905	0	0.014201	0.132634	0.014414	0.006553	0.002807	0.007742	0.029047	0	0.018873	0.02379	0.002189	0.001554
2.577	0.022812	0.034394	0.003881	0	0.014164	0.133489	0.014177	0.006576	0.002811	0.007777	0.028379	0	0.019128	0.023456	0.002183	0.001545
2.5775	0.022134	0.034064	0.003858	0	0.014128	0.134358	0.013939	0.0066	0.002814	0.007814	0.027727	0	0.019387	0.023128	0.002178	0.001536
2.578	0.021468	0.033749	0.003834	0	0.014093	0.13524	0.013701	0.006626	0.002816	0.007853	0.027091	0	0.019648	0.022805	0.002173	0.001528
2.5785	0.020812	0.033447	0.00381	0	0.014059	0.136135	0.013463	0.006654	0.002819	0.007893	0.026471	0	0.019913	0.022487	0.002169	0.00152
2.579	0.020168	0.03316	0.003787	0	0.014027	0.137044	0.013225	0.006683	0.002822	0.007935	0.025867	0	0.020181	0.022174	0.002166	0.001512
2.5795	0.019535	0.032886	0.003763	0	0.013995	0.137968	0.012987	0.006714	0.002825	0.007978	0.025278	0	0.020451	0.021865	0.002163	0.001505
2.58	0.018913	0.032626	0.003739	0	0.013965	0.138905	0.012749	0.006747	0.002827	0.008022	0.024706	0	0.020725	0.021561	0.002161	0.001498
2.5805	0.018303	0.03238	0.003714	0	0.013937	0.139858	0.01251	0.006781	0.00283	0.008067	0.02415	0	0.021001	0.021261	0.002159	0.001492
2.581	0.017704	0.032148	0.00369	0	0.013909	0.140824	0.012272	0.006817	0.002832	0.008114	0.023611	0	0.02128	0.020966	0.002159	0.001485
2.5815	0.017117	0.031931	0.003666	0	0.013884	0.141806	0.012034	0.006855	0.002834	0.008162	0.023088	0	0.021561	0.020674	0.002158	0.001479
2.582	0.016541	0.031727	0.003641	0	0.013859	0.142802	0.011797	0.006895	0.002837	0.00821	0.022582	0	0.021844	0.020386	0.002159	0.001473
2.5825	0.015976	0.031537	0.003616	0	0.013836	0.143814	0.01156	0.006936	0.002839	0.008259	0.022094	0	0.02213	0.020102	0.00216	0.001468
2.583	0.015424	0.031362	0.003591	0	0.013815	0.14484	0.011323	0.00698	0.002841	0.008309	0.021622	0	0.022417	0.019822	0.002162	0.001463
2.5835	0.014883	0.0312	0.003566	0	0.013794	0.145881	0.011087	0.007025	0.002843	0.008359	0.021168	0	0.022706	0.019545	0.002165	0.001458
2.584	0.014355	0.031052	0.003541	0	0.013776	0.146938	0.010851	0.007073	0.002845	0.00841	0.020732	0	0.022997	0.019272	0.002168	0.001454
2.5845	0.013838	0.030919	0.003516	0	0.013759	0.14801	0.010616	0.007122	0.002847	0.008461	0.020314	0	0.023289	0.019002	0.002172	0.00145
2.585	0.013334	0.030799	0.003491	0	0.013743	0.149098	0.010381	0.007174	0.002849	0.008512	0.019914	0	0.023582	0.018735	0.002176	0.001446
2.5855	0.012842	0.030693	0.003465	0	0.013729	0.150202	0.010147	0.007228	0.002851	0.008563	0.019533	0	0.023877	0.018472	0.002182	0.001443
2.586	0.012362	0.030602	0.003439	0	0.013717	0.151321	0.009914	0.007284	0.002853	0.008614	0.01917	0	0.024172	0.018212	0.002188	0.00144
2.5865	0.011895	0.030524	0.003414	0	0.013706	0.152456	0.009682	0.007343	0.002855	0.008665	0.018826	0	0.024468	0.017954	0.002194	0.001437
2.587	0.011441	0.03046	0.003388	0	0.013697	0.153607	0.00945	0.007404	0.002858	0.008716	0.018502	0	0.024765	0.0177	0.002202	0.001434
2.5875	0.010999	0.030409	0.003362	0	0.013689	0.154774	0.009219	0.007467	0.00286	0.008766	0.018197	0	0.025062	0.017449	0.00221	0.001432
2.588	0.010569	0.030373	0.003336	0	0.013682	0.155957	0.00899	0.007533	0.002862	0.008816	0.017911	0	0.025359	0.017201	0.002219	0.00143
2.5885	0.010153	0.030349	0.003309	0	0.013678	0.157156	0.008761	0.007601	0.002864	0.008865	0.017645	0	0.025656	0.016955	0.002229	0.001429
2.589	0.009749	0.03034	0.003283	0	0.013674	0.158371	0.008533	0.007672	0.002867	0.008913	0.017399	0	0.025952	0.016713	0.002239	0.001428
2.5895	0.009358	0.030344	0.003256	0	0.013672	0.159602	0.008307	0.007746	0.00287	0.008961	0.017174	0	0.026249	0.016473	0.00225	0.001427
2.59	0.008981	0.030361	0.00323	0	0.013672	0.160848	0.008081	0.007822	0.002872	0.009007	0.016969	0	0.026544	0.016236	0.002262	0.001427
2.5905	0.008616	0.030391	0.003203	0	0.013673	0.162111	0.007857	0.007901	0.002875	0.009052	0.016785	0	0.026839	0.016003	0.002275	0.001427
2.591	0.008265	0.030435	0.003176	0	0.013676	0.163388	0.007634	0.007984	0.002878	0.009097	0.016621	0	0.027132	0.015772	0.002288	0.001427
2.5915	0.007927	0.030491	0.00315	0	0.01368	0.164682	0.007413	0.008069	0.002882	0.009139	0.016479	0	0.027425	0.015545	0.002303	0.001428
2.592	0.007603	0.030561	0.003123	0	0.013685	0.16599	0.007193	0.008157	0.002885	0.009181	0.016357	0	0.027715	0.01532	0.002318	0.001429
2.5925	0.007292	0.030643	0.003096	0	0.013692	0.167314	0.006974	0.008248	0.002889	0.009221	0.016258	0	0.028004	0.015098	0.002334	0.00143
2.593	0.006994	0.030737	0.003069	0	0.0137	0.168653	0.006757	0.008343	0.002893	0.009259	0.01618	0	0.028292	0.01488	0.00235	0.001431
2.5935	0.006711	0.030844	0.003041	0	0.01371	0.170006	0.006542	0.00844	0.002897	0.009296	0.016123	0	0.028577	0.014664	0.002368	0.001433
2.594	0.006441	0.030963	0.003014	0	0.013721	0.171374	0.006328	0.008541	0.002901	0.009331	0.016089	0	0.028859	0.014452	0.002386	0.001436
2.5945	0.006185	0.031094	0.002987	0	0.013734	0.172756	0.006116	0.008646	0.002906	0.009364	0.016076	0	0.02914	0.014242	0.002405	0.001438
2.595	0.005943	0.031236	0.002959	0	0.013748	0.174152	0.005906	0.008754	0.002911	0.009395	0.016086	0	0.029417	0.014036	0.002425	0.001441
2.5955	0.005715	0.031391	0.002932	0	0.013763	0.175561	0.005698	0.008865	0.002916	0.009425	0.016118	0	0.029692	0.013832	0.002446	0.001445
2.596	0.005501	0.031556	0.002904	0	0.01378	0.176984	0.005491	0.00898	0.002922	0.009452	0.016173	0	0.029964	0.013632	0.002467	0.001448
2.5965	0.005301	0.031733	0.002877	0	0.013798	0.178419	0.005287	0.009098	0.002928	0.009477	0.016251	0	0.030232	0.013434	0.00249	0.001452
2.597	0.005116	0.031921	0.002849	0	0.013817	0.179866	0.005085	0.00922	0.002934	0.0095	0.016351	0	0.030497	0.01324	0.002513	0.001457
2.5975	0.004946	0.03212	0.002822	0	0.013838	0.181325	0.004885	0.009346	0.002941	0.009521	0.016474	0	0.030759	0.013048	0.002537	0.001461
2.598	0.00479	0.032329	0.002794	0	0.01386	0.182795	0.004687	0.009475	0.002948	0.009539	0.016621	0	0.031016	0.01286	0.002562	0.001466
2.5985	0.004648	0.032548	0.002766	0	0.013884	0.184275	0.004492	0.009609	0.002955	0.009556	0.016791	0	0.03127	0.012674	0.002587	0.001472
2.599	0.004522	0.032777	0.002738	0	0.013909	0.185766	0.004299	0.009746	0.002962	0.00957	0.016984	0	0.03152	0.012491	0.002613	0.001477
2.5995	0.00441	0.033017	0.002711	0	0.013935	0.187265	0.004108	0.009887	0.00297	0.009582	0.017201	0	0.031765	0.012312	0.002641	0.001483
2.6	0.004313	0.033265	0.002683	0	0.013963	0.188773	0.00392	0.010032	0.002978	0.009592	0.017441	0	0.032005	0.012135	0.002669	0.00149
2.6005	0.004232	0.033523	0.002655	0	0.013992	0.190289	0.003735	0.010181	0.002987	0.009599	0.017705	0	0.032241	0.011961	0.002698	0.001497
2.601	0.004165	0.03379	0.002627	0	0.014023	0.191811	0.003552	0.010334	0.002996	0.009605	0.017993	0	0.032472	0.011791	0.002727	0.001504
2.6015	0.004114	0.034065	0.0026	0	0.014055	0.19334	0.003372	0.010491	0.003005	0.009608	0.018306	0	0.032698	0.011623	0.002758	0.001511
2.602	0.004078	0.034349	0.002572	0	0.014089	0.194874	0.003195	0.010652	0.003015	0.009609	0.018642	0	0.032919	0.011458	0.002789	0.001519
2.6025	0.004058	0.03464	0.002544	0	0.014124	0.196413	0.003021	0.010817	0.003025	0.009607	0.019003	0	0.033134	0.011297	0.002821	0.001527
2.603	0.004054	0.03494	0.002517	0	0.014161	0.197955	0.002849	0.010987	0.003035	0.009604	0.019388	0	0.033344	0.011138	0.002854	0.001535
2.6035	0.004065	0.035247	0.002489	0	0.014199	0.1995	0.002681	0.011161	0.003046	0.009598	0.019798	0	0.033548	0.010983	0.002888	0.001544
2.604	0.004093	0.035561	0.002462	0	0.014239	0.201049	0.002515	0.011339	0.003057	0.00959	0.020233	0	0.033747	0.01083	0.002922	0.001553
2.6045	0.004136	0.035882	0.002434	0	0.01428	0.202599	0.002353	0.011521	0.003068	0.00958	0.020692	0	0.033939	0.010681	0.002958	0.001562
2.605	0.004196	0.03621	0.002407	0	0.014322	0.204151	0.002194	0.011708	0.00308	0.009568	0.021177	0	0.034126	0.010534	0.002994	0.001572
2.6055	0.004271	0.036544	0.00238	0	0.014367	0.205703	0.002039	0.0119	0.003093	0.009554	0.021687	0	0.034307	0.010391	0.003031	0.001582
2.606	0.004364	0.036885	0.002353	0	0.014412	0.207257	0.001886	0.012096	0.003105	0.009538	0.022223	0	0.034482	0.010251	0.003068	0.001592
2.6065	0.004472	0.037231	0.002327	0	0.014459	0.20881	0.001737	0.012297	0.003118	0.009519	0.022784	0	0.034651	0.010114	0.003107	0.001603
2.607	0.004598	0.037582	0.0023	0	0.014508	0.210362	0.001592	0.012503	0.003132	0.009499	0.023371	0	0.034813	0.00998	0.003146	0.001613
2.6075	0.00474	0.037939	0.002274	0	0.014558	0.211914	0.00145	0.012713	0.003146	0.009477	0.023985	0	0.03497	0.009849	0.003186	0.001625
2.608	0.004899	0.038301	0.002249	0	0.01461	0.213463	0.001312	0.012928	0.00316	0.009452	0.024625	0	0.035121	0.009722	0.003227	0.001636
2.6085	0.005075	0.038667	0.002223	0	0.014663	0.215011	0.001177	0.013148	0.003175	0.009426	0.025292	0	0.035267	0.009597	0.003268	0.001648
2.609	0.005268	0.039038	0.002198	0	0.014718	0.216555	0.001047	0.013373	0.00319	0.009399	0.025986	0	0.035407	0.009476	0.003311	0.00166
2.6095	0.005479	0.039413	0.002174	0	0.014774	0.218097	0.00092	0.013604	0.003205	0.009369	0.026707	0	0.035541	0.009358	0.003354	0.001672
2.61	0.005707	0.039792	0.002149	0	0.014833	0.219635	0.000797	0.013839	0.003221	0.009338	0.027457	0	0.03567	0.009243	0.003397	0.001685
2.6105	0.005952	0.040175	0.002126	0	0.014892	0.221169	0.000678	0.01408	0.003237	0.009305	0.028234	2.6e-05	0.035794	0.009132	0.003442	0.001697
2.611	0.006216	0.040561	0.002103	0	0.014954	0.222698	0.000563	0.014326	0.003254	0.009271	0.02904	0.000207	0.035912	0.009024	0.003487	0.001711
2.6115	0.006498	0.040951	0.00208	0	0.015017	0.224223	0.000452	0.014577	0.003271	0.009236	0.029875	0.000397	0.036025	0.008919	0.003533	0.001724
2.612	0.006797	0.041345	0.002058	0	0.015082	0.225743	0.000345	0.014834	0.003288	0.009199	0.030739	0.000595	0.036134	0.008818	0.003579	0.001737
2.6125	0.007115	0.041742	0.002037	0	0.015148	0.227258	0.000243	0.015097	0.003306	0.009161	0.031632	0.000801	0.036237	0.00872	0.003626	0.001751
2.613	0.007452	0.042141	0.002016	0	0.015217	0.228768	0.000145	0.015365	0.003324	0.009121	0.032554	0.001016	0.036336	0.008626	0.003674	0.001765
2.6135	0.007807	0.042544	0.001996	0	0.015287	0.230273	5.2e-05	0.015639	0.003343	0.00908	0.033507	0.001239	0.03643	0.008535	0.003723	0.001779
2.614	0.00818	0.04295	0.001976	0	0.015358	0.231772	0	0.015918	0.003362	0.009039	0.03449	0.001472	0.036519	0.008448	0.003772	0.001794
2.6145	0.008573	0.043358	0.001958	0	0.015432	0.233267	0	0.016204	0.003381	0.008996	0.035504	0.001713	0.036603	0.008364	0.003822	0.001809
2.615	0.008985	0.043769	0.00194	0	0.015508	0.234757	0	0.016495	0.003401	0.008952	0.036548	0.001964	0.036683	0.008284	0.003873	0.001823
2.6155	0.009416	0.044182	0.001923	0	0.015585	0.236242	0	0.016792	0.003421	0.008907	0.037623	0.002225	0.036759	0.008207	0.003924	0.001838
2.616	0.009866	0.044598	0.001907	0	0.015664	0.237721	0	0.017095	0.003442	0.008861	0.038729	0.002495	0.03683	0.008134	0.003976	0.001853
2.6165	0.010336	0.045016	0.001892	0	0.015745	0.239195	0	0.017404	0.003463	0.008814	0.039867	0.002775	0.036897	0.008064	0.004028	0.001869
2.617	0.010826	0.045436	0.001878	0	0.015828	0.240664	0	0.017719	0.003484	0.008767	0.041036	0.003065	0.036959	0.007998	0.004081	0.001884
2.6175	0.011335	0.045858	0.001865	0	0.015913	0.242126	0	0.01804	0.003506	0.008719	0.042238	0.003365	0.037017	0.007936	0.004135	0.0019
2.618	0.011865	0.046282	0.001853	0	0.016	0.243583	0	0.018367	0.003528	0.00867	0.043472	0.003675	0.037071	0.007877	0.004189	0.001915
2.6185	0.012414	0.046709	0.001842	0	0.016089	0.245033	0	0.0187	0.00355	0.008621	0.044738	0.003996	0.037121	0.007822	0.004244	0.001931
2.619	0.012984	0.047137	0.001833	0	0.016179	0.246476	0	0.019039	0.003573	0.008571	0.046036	0.004327	0.037166	0.00777	0.0043	0.001947
2.6195	0.013575	0.047568	0.001824	0.000132	0.016272	0.247912	0	0.019385	0.003596	0.008521	0.047367	0.004669	0.037208	0.007723	0.004356	0.001963
2.62	0.014186	0.048	0.001817	0.00051	0.016366	0.24934	0	0.019737	0.003619	0.00847	0.048731	0.005022	0.037245	0.007679	0.004412	0.001979
2.6205	0.014818	0.048433	0.001811	0.000904	0.016463	0.250759	0	0.020094	0.003643	0.008419	0.050129	0.005387	0.037278	0.007638	0.004469	0.001995
2.621	0.015471	0.048869	0.001806	0.001312	0.016561	0.252169	0	0.020458	0.003666	0.008368	0.051559	0.005762	0.037307	0.007602	0.004527	0.002012
2.6215	0.016145	0.049307	0.001803	0.001736	0.016662	0.25357	0	0.020828	0.003691	0.008316	0.053023	0.006149	0.037331	0.007569	0.004585	0.002028
2.622	0.01684	0.049747	0.001801	0.002176	0.016764	0.25496	0	0.021205	0.003715	0.008264	0.05452	0.006548	0.037352	0.00754	0.004644	0.002044
2.6225	0.017558	0.050188	0.0018	0.002632	0.016868	0.256339	0	0.021587	0.00374	0.008213	0.056051	0.006959	0.037368	0.007514	0.004703	0.00206
2.623	0.018296	0.050633	0.001801	0.003105	0.016975	0.257707	0	0.021976	0.003765	0.008161	0.057616	0.007381	0.03738	0.007493	0.004763	0.002077
2.6235	0.019057	0.05108	0.001804	0.003594	0.017083	0.259061	0	0.022371	0.003791	0.008109	0.059216	0.007816	0.037387	0.007475	0.004823	0.002093
2.624	0.01984	0.05153	0.001808	0.0041	0.017193	0.260402	0	0.022771	0.003816	0.008057	0.060849	0.008262	0.037391	0.007461	0.004884	0.002109
2.6245	0.020645	0.051983	0.001814	0.004623	0.017305	0.261729	0	0.023178	0.003842	0.008006	0.062517	0.008722	0.037389	0.00745	0.004945	0.002125
2.625	0.021473	0.052439	0.001822	0.005164	0.01742	0.26304	0	0.023592	0.003869	0.007954	0.064219	0.009193	0.037384	0.007444	0.005006	0.002142
2.6255	0.022323	0.052899	0.001831	0.005723	0.017536	0.264334	0	0.024011	0.003895	0.007903	0.065956	0.009678	0.037374	0.007441	0.005068	0.002158
2.626	0.023196	0.053363	0.001843	0.0063	0.017654	0.26561	0	0.024436	0.003922	0.007852	0.067728	0.010175	0.037359	0.007442	0.00513	0.002174
2.6265	0.024091	0.053832	0.001856	0.006895	0.017775	0.266867	0	0.024867	0.003949	0.007802	0.069535	0.010686	0.037339	0.007447	0.005193	0.00219
2.627	0.02501	0.054305	0.001871	0.007509	0.017897	0.268104	0	0.025304	0.003977	0.007751	0.071377	0.011209	0.037315	0.007456	0.005256	0.002205
2.6275	0.025952	0.054783	0.001889	0.008142	0.018021	0.269319	0	0.025747	0.004004	0.007701	0.073254	0.011746	0.037287	0.007469	0.005319	0.002221
2.628	0.026918	0.055267	0.001908	0.008794	0.018147	0.270511	0	0.026196	0.004032	0.007652	0.075166	0.012296	0.037254	0.007486	0.005383	0.002237
2.6285	0.027907	0.055757	0.00193	0.009467	0.018276	0.271679	0	0.026651	0.00406	0.007603	0.077113	0.01286	0.037215	0.007506	0.005447	0.002252
2.629	0.028919	0.056254	0.001954	0.010159	0.018406	0.27282	0	0.027111	0.004088	0.007554	0.079095	0.013438	0.037172	0.007531	0.005511	0.002267
2.6295	0.029955	0.056758	0.00198	0.010871	0.018538	0.273933	0	0.027578	0.004117	0.007506	0.081113	0.014029	0.037125	0.00756	0.005576	0.002283
2.63	0.031015	0.057271	0.002009	0.011605	0.018672	0.275016	0	0.02805	0.004146	0.007458	0.083167	0.014635	0.037072	0.007594	0.005641	0.002297
2.6305	0.032099	0.057793	0.00204	0.012359	0.018808	0.276068	9.7e-05	0.028527	0.004174	0.007411	0.085255	0.015254	0.037014	0.007631	0.005706	0.002312
2.631	0.033207	0.058324	0.002074	0.013135	0.018946	0.277087	0.000213	0.02901	0.004203	0.007365	0.087379	0.015889	0.036951	0.007672	0.005771	0.002327
2.6315	0.034339	0.058865	0.002111	0.013933	0.019086	0.27807	0.000336	0.029499	0.004233	0.007319	0.089538	0.016537	0.036884	0.007718	0.005836	0.002341
2.632	0.035495	0.059416	0.002151	0.014753	0.019228	0.279016	0.000468	0.029994	0.004262	0.007274	0.091732	0.0172	0.036811	0.007769	0.005902	0.002355
2.6325	0.036675	0.059979	0.002193	0.015595	0.019371	0.279924	0.000607	0.030493	0.004292	0.00723	0.093961	0.017878	0.036733	0.007824	0.005968	0.002368
2.633	0.03788	0.060553	0.002239	0.016461	0.019517	0.28079	0.000755	0.030999	0.004321	0.007187	0.096225	0.01857	0.036651	0.007883	0.006034	0.002382
2.6335	0.03911	0.06114	0.002287	0.01735	0.019664	0.281613	0.000912	0.031509	0.004351	0.007144	0.098524	0.019278	0.036563	0.007947	0.0061	0.002395
2.634	0.040364	0.061739	0.002339	0.018263	0.019812	0.282392	0.001076	0.032025	0.004381	0.007102	0.100857	0.02	0.03647	0.008016	0.006166	0.002408
2.6345	0.041642	0.062352	0.002395	0.0192	0.019963	0.283124	0.00125	0.032547	0.004411	0.007061	0.103224	0.020738	0.036372	0.00809	0.006233	0.00242
2.635	0.042945	0.062978	0.002453	0.020162	0.020114	0.283807	0.001432	0.033074	0.004441	0.00702	0.105626	0.021491	0.03627	0.008168	0.006299	0.002432
2.6355	0.044273	0.063618	0.002515	0.021149	0.020268	0.284441	0.001624	0.033606	0.004472	0.006981	0.108061	0.022259	0.036162	0.008252	0.006365	0.002444
2.636	0.045625	0.064274	0.002581	0.02216	0.020423	0.285023	0.001825	0.034143	0.004502	0.006942	0.11053	0.023043	0.036049	0.00834	0.006431	0.002455
2.6365	0.047002	0.064944	0.002651	0.023198	0.020579	0.285553	0.002035	0.034686	0.004532	0.006904	0.113032	0.023842	0.035931	0.008434	0.006497	0.002466
2.637	0.048405	0.06563	0.002724	0.024261	0.020736	0.286029	0.002254	0.035234	0.004563	0.006868	0.115567	0.024657	0.035809	0.008533	0.006564	0.002477
2.6375	0.049832	0.066332	0.002802	0.025351	0.020895	0.28645	0.002483	0.035787	0.004593	0.006832	0.118134	0.025487	0.035681	0.008637	0.006629	0.002487
2.638	0.051284	0.06705	0.002883	0.026467	0.021054	0.286817	0.002722	0.036346	0.004624	0.006796	0.120733	0.026334	0.035548	0.008746	0.006695	0.002496
2.6385	0.052761	0.067785	0.002969	0.02761	0.021215	0.287127	0.002972	0.036909	0.004654	0.006762	0.123364	0.027196	0.035411	0.008861	0.006761	0.002505
2.639	0.054262	0.068538	0.003059	0.028781	0.021377	0.28738	0.003231	0.037477	0.004684	0.006729	0.126026	0.028074	0.035269	0.008982	0.006826	0.002514
2.6395	0.055789	0.069308	0.003153	0.029979	0.021539	0.287575	0.003501	0.03805	0.004715	0.006697	0.128719	0.028968	0.035121	0.009108	0.006891	0.002522
2.64	0.057341	0.070096	0.003252	0.031205	0.021703	0.287713	0.003781	0.038629	0.004745	0.006666	0.131443	0.029877	0.034969	0.00924	0.006956	0.002529
2.6405	0.058918	0.070902	0.003355	0.03246	0.021867	0.287792	0.004073	0.039211	0.004776	0.006635	0.134195	0.030803	0.034812	0.009377	0.007021	0.002536
2.641	0.060519	0.071727	0.003463	0.033743	0.022032	0.287812	0.004375	0.039799	0.004806	0.006606	0.136977	0.031745	0.034651	0.009521	0.007085	0.002542
2.6415	0.062145	0.072572	0.003575	0.035054	0.022197	0.287772	0.004689	0.040391	0.004836	0.006577	0.139788	0.032702	0.034484	0.009671	0.007149	0.002548
2.642	0.063796	0.073435	0.003693	0.036395	0.022363	0.287672	0.005014	0.040988	0.004866	0.00655	0.142627	0.033676	0.034313	0.009827	0.007213	0.002553
2.6425	0.065472	0.074318	0.003815	0.037765	0.022529	0.287514	0.005351	0.041589	0.004896	0.006524	0.145492	0.034666	0.034138	0.009989	0.007276	0.002557
2.643	0.067172	0.075221	0.003942	0.039165	0.022696	0.287297	0.0057	0.042195	0.004925	0.006498	0.148385	0.035671	0.033958	0.010157	0.007339	0.002561
2.6435	0.068897	0.076144	0.004075	0.040594	0.022864	0.287023	0.006061	0.042805	0.004955	0.006474	0.151303	0.036693	0.033774	0.010333	0.007402	0.002564
2.644	0.070646	0.077087	0.004213	0.042054	0.023032	0.286692	0.006434	0.043418	0.004984	0.00645	0.154247	0.03773	0.033586	0.010514	0.007464	0.002567
2.6445	0.07242	0.078051	0.004356	0.043544	0.0232	0.286306	0.00682	0.044036	0.005014	0.006428	0.157214	0.038783	0.033394	0.010703	0.007526	0.002568
2.645	0.074218	0.079036	0.004504	0.045065	0.023368	0.285867	0.007219	0.044657	0.005043	0.006406	0.160206	0.039852	0.033198	0.010899	0.007588	0.002569
2.6455	0.076039	0.080041	0.004658	0.046616	0.023537	0.285375	0.007631	0.045282	0.005072	0.006386	0.16322	0.040936	0.032998	0.011101	0.007649	0.002569
2.646	0.077885	0.081068	0.004818	0.048198	0.023706	0.284832	0.008056	0.045911	0.0051	0.006366	0.166256	0.042036	0.032796	0.011311	0.00771	0.002568
2.6465	0.079755	0.082116	0.004983	0.049812	0.023876	0.284239	0.008494	0.046542	0.005129	0.006348	0.169313	0.043152	0.032589	0.011529	0.00777	0.002567
2.647	0.081648	0.083185	0.005154	0.051457	0.024046	0.283597	0.008946	0.047177	0.005157	0.00633	0.17239	0.044283	0.03238	0.011754	0.00783	0.002564
2.6475	0.083565	0.084275	0.005331	0.053133	0.024215	0.282907	0.009412	0.047814	0.005185	0.006314	0.175487	0.04543	0.032167	0.011987	0.00789	0.002561
2.648	0.085504	0.085387	0.005514	0.054841	0.024385	0.28217	0.009893	0.048455	0.005213	0.006298	0.178602	0.046591	0.031952	0.012228	0.007949	0.002557
2.6485	0.087468	0.086521	0.005703	0.056581	0.024555	0.281388	0.010387	0.049097	0.005241	0.006284	0.181736	0.047768	0.031733	0.012477	0.008008	0.002551
2.649	0.089453	0.087676	0.005898	0.058354	0.024725	0.28056	0.010897	0.049742	0.005268	0.00627	0.184887	0.048959	0.031512	0.012734	0.008066	0.002545
2.6495	0.091462	0.088853	0.0061	0.060158	0.024895	0.27969	0.011421	0.050389	0.005296	0.006258	0.188055	0.050166	0.031289	0.013	0.008124	0.002538
2.65	0.093493	0.090052	0.006308	0.061994	0.025065	0.278777	0.01196	0.051037	0.005323	0.006246	0.191238	0.051387	0.031063	0.013274	0.008182	0.00253
2.6505	0.095546	0.091272	0.006522	0.063863	0.025235	0.277823	0.012515	0.051687	0.005349	0.006236	0.194437	0.052622	0.030836	0.013557	0.00824	0.002521
2.651	0.097621	0.092514	0.006743	0.065765	0.025405	0.276829	0.013085	0.052338	0.005376	0.006226	0.19765	0.053872	0.030606	0.013848	0.008297	0.002511
2.6515	0.099718	0.093779	0.00697	0.067699	0.025574	0.275796	0.013671	0.05299	0.005402	0.006218	0.200877	0.055136	0.030374	0.014149	0.008354	0.0025
2.652	0.101837	0.095064	0.007204	0.069666	0.025744	0.274726	0.014273	0.053642	0.005427	0.00621	0.204118	0.056414	0.03014	0.014459	0.008411	0.002487
2.6525	0.103977	0.096372	0.007445	0.071665	0.025913	0.273619	0.014891	0.054294	0.005453	0.006204	0.207372	0.057705	0.029905	0.014778	0.008467	0.002474
2.653	0.106138	0.097701	0.007693	0.073697	0.026082	0.272477	0.015526	0.054947	0.005478	0.006198	0.210638	0.05901	0.029668	0.015106	0.008524	0.00246
2.6535	0.10832	0.099052	0.007948	0.075762	0.026251	0.271301	0.016177	0.055599	0.005502	0.006194	0.213917	0.060328	0.029429	0.015444	0.00858	0.002444
2.654	0.110523	0.100424	0.00821	0.07786	0.026419	0.27009	0.016845	0.05625	0.005527	0.00619	0.217207	0.061658	0.029189	0.015792	0.008636	0.002428
2.6545	0.112747	0.101817	0.008478	0.079991	0.026587	0.268848	0.017531	0.056901	0.005551	0.006187	0.220509	0.063002	0.028947	0.01615	0.008691	0.00241
2.655	0.114991	0.103232	0.008754	0.082154	0.026755	0.267573	0.018233	0.05755	0.005574	0.006186	0.223822	0.064357	0.028705	0.016518	0.008747	0.002392
2.6555	0.117255	0.104667	0.009038	0.084351	0.026922	0.266267	0.018953	0.058198	0.005597	0.006185	0.227145	0.065724	0.02846	0.016896	0.008802	0.002372
2.656	0.119539	0.106124	0.009328	0.08658	0.027089	0.264931	0.01969	0.058844	0.00562	0.006185	0.230478	0.067103	0.028215	0.017284	0.008858	0.002351
2.6565	0.121843	0.107601	0.009627	0.088843	0.027255	0.263564	0.020445	0.059489	0.005642	0.006186	0.23382	0.068493	0.027968	0.017683	0.008913	0.002329
2.657	0.124166	0.109099	0.009932	0.091138	0.027422	0.262169	0.021218	0.060131	0.005664	0.006188	0.237172	0.069894	0.027721	0.018092	0.008968	0.002306
2.6575	0.126508	0.110617	0.010245	0.093467	0.027587	0.260744	0.02201	0.06077	0.005686	0.006191	0.240532	0.071306	0.027472	0.018512	0.009023	0.002281
2.658	0.128868	0.112155	0.010566	0.095828	0.027753	0.259291	0.022819	0.061407	0.005706	0.006195	0.243899	0.072727	0.027222	0.018943	0.009078	0.002256
2.6585	0.131248	0.113714	0.010895	0.098223	0.027917	0.25781	0.023647	0.062041	0.005727	0.0062	0.247274	0.074158	0.026971	0.019385	0.009134	0.00223
2.659	0.133646	0.115293	0.011231	0.100651	0.028082	0.256301	0.024494	0.062671	0.005746	0.006206	0.250655	0.075598	0.026718	0.019839	0.009189	0.002202
2.6595	0.136063	0.116891	0.011575	0.103112	0.028246	0.254764	0.025359	0.063296	0.005766	0.006212	0.254043	0.077046	0.026465	0.020303	0.009245	0.002173
2.66	0.138498	0.118509	0.011927	0.105607	0.028409	0.253199	0.026244	0.063918	0.005784	0.00622	0.257436	0.078503	0.026211	0.020779	0.009301	0.002144
2.6605	0.140951	0.120147	0.012287	0.108135	0.028572	0.251608	0.027148	0.064535	0.005803	0.006228	0.260836	0.079968	0.025956	0.021267	0.009357	0.002113
2.661	0.143422	0.121803	0.012655	0.110698	0.028734	0.249989	0.028071	0.065147	0.00582	0.006237	0.26424	0.08144	0.0257	0.021766	0.009414	0.002081
2.6615	0.145911	0.123479	0.013031	0.113293	0.028895	0.248344	0.029013	0.065753	0.005837	0.006248	0.267651	0.082918	0.025443	0.022278	0.009471	0.002049
2.662	0.148418	0.125174	0.013415	0.115923	0.029056	0.246672	0.029975	0.066354	0.005854	0.006259	0.271066	0.084403	0.025185	0.022801	0.009529	0.002015
2.6625	0.150942	0.126887	0.013807	0.118587	0.029216	0.244973	0.030957	0.066948	0.005869	0.006271	0.274486	0.085894	0.024927	0.023337	0.009587	0.001981
2.663	0.153484	0.128619	0.014208	0.121285	0.029376	0.243248	0.031959	0.067536	0.005885	0.006284	0.277911	0.08739	0.024668	0.023884	0.009646	0.001945
2.6635	0.156043	0.130369	0.014617	0.124016	0.029534	0.241496	0.032981	0.068116	0.005899	0.006298	0.281341	0.088891	0.024408	0.024444	0.009706	0.001909
2.664	0.158619	0.132136	0.015034	0.126782	0.029693	0.239718	0.034024	0.068689	0.005913	0.006313	0.284774	0.090396	0.024148	0.025017	0.009766	0.001873
2.6645	0.161212	0.133922	0.01546	0.129582	0.02985	0.237914	0.035086	0.069254	0.005927	0.006329	0.288212	0.091905	0.023887	0.025602	0.009827	0.001835
2.665	0.163822	0.135725	0.015894	0.132416	0.030007	0.236083	0.036169	0.069811	0.00594	0.006346	0.291655	0.093416	0.023626	0.0262	0.00989	0.001797
2.6655	0.166449	0.137546	0.016337	0.135284	0.030163	0.234226	0.037273	0.070359	0.005952	0.006364	0.295101	0.094929	0.023365	0.026811	0.009953	0.001758
2.666	0.169094	0.139383	0.016788	0.138186	0.030319	0.232342	0.038398	0.070899	0.005964	0.006383	0.298552	0.096444	0.023104	0.027435	0.010017	0.001718
2.6665	0.171756	0.141237	0.017248	0.141122	0.030474	0.23043	0.039543	0.07143	0.005975	0.006403	0.302008	0.09796	0.022842	0.028071	0.010082	0.001678
2.667	0.174435	0.143106	0.017717	0.144092	0.030628	0.228492	0.04071	0.071951	0.005986	0.006424	0.305468	0.099476	0.02258	0.028721	0.010149	0.001637
2.6675	0.177131	0.144992	0.018194	0.147095	0.030782	0.226526	0.041897	0.072464	0.005996	0.006447	0.308933	0.100991	0.022318	0.029384	0.010217	0.001596
2.668	0.179845	0.146892	0.01868	0.150131	0.030936	0.224533	0.043106	0.072967	0.006006	0.00647	0.312402	0.102505	0.022056	0.030061	0.010286	0.001554
2.6685	0.182576	0.148808	0.019175	0.153201	0.031089	0.222513	0.044336	0.073461	0.006014	0.006495	0.315874	0.104016	0.021794	0.030751	0.010356	0.001512
2.669	0.185324	0.150737	0.01968	0.156304	0.031241	0.220465	0.045588	0.073945	0.006023	0.006521	0.319351	0.105524	0.021532	0.031454	0.010428	0.001469
2.6695	0.188089	0.152681	0.020193	0.15944	0.031393	0.218391	0.046861	0.07442	0.006031	0.006548	0.322831	0.107029	0.02127	0.032172	0.010502	0.001427
2.67	0.190872	0.154637	0.020715	0.162608	0.031545	0.216291	0.048156	0.074884	0.006038	0.006577	0.326314	0.108528	0.021009	0.032902	0.010577	0.001384
2.6705	0.193672	0.156607	0.021246	0.165809	0.031695	0.214165	0.049472	0.075339	0.006044	0.006606	0.3298	0.110022	0.020748	0.033647	0.010654	0.001341
2.671	0.19649	0.158588	0.021786	0.169043	0.031846	0.212013	0.05081	0.075784	0.00605	0.006637	0.333288	0.11151	0.020488	0.034406	0.010733	0.001298
2.6715	0.199325	0.160582	0.022336	0.172308	0.031995	0.209837	0.052169	0.076218	0.006056	0.006669	0.336778	0.11299	0.020228	0.035178	0.010813	0.001255
2.672	0.202178	0.162587	0.022895	0.175606	0.032144	0.207637	0.05355	0.076642	0.006061	0.006703	0.340269	0.114462	0.019969	0.035965	0.010895	0.001212
2.6725	0.205049	0.164602	0.023463	0.178934	0.032293	0.205414	0.054953	0.077056	0.006065	0.006737	0.34376	0.115926	0.01971	0.036765	0.01098	0.00117
2.673	0.207937	0.166629	0.024041	0.182294	0.032441	0.203167	0.056378	0.077459	0.006069	0.006773	0.347251	0.117379	0.019453	0.03758	0.011066	0.001128
2.6735	0.210843	0.168665	0.024628	0.185684	0.032588	0.200898	0.057824	0.077851	0.006073	0.00681	0.350741	0.118821	0.019196	0.038409	0.011155	0.001086
2.674	0.213767	0.170711	0.025224	0.189105	0.032734	0.198608	0.059291	0.078232	0.006076	0.006849	0.35423	0.120253	0.01894	0.039252	0.011245	0.001045
2.6745	0.216709	0.172766	0.02583	0.192555	0.03288	0.196297	0.060781	0.078603	0.006079	0.006889	0.357717	0.121671	0.018685	0.04011	0.011338	0.001005
2.675	0.219669	0.174829	0.026446	0.196034	0.033025	0.193966	0.062291	0.078962	0.006081	0.00693	0.361201	0.123077	0.018431	0.040982	0.011434	0.000965
2.6755	0.222648	0.1769	0.027071	0.199542	0.03317	0.191616	0.063823	0.079311	0.006082	0.006973	0.364681	0.124468	0.018179	0.041868	0.011532	0.000926
2.676	0.225645	0.178978	0.027706	0.203078	0.033314	0.189249	0.065377	0.079648	0.006084	0.007017	0.368157	0.125845	0.017927	0.042768	0.011632	0.000888
2.6765	0.228661	0.181063	0.02835	0.206641	0.033458	0.186866	0.066951	0.079975	0.006085	0.007062	0.371628	0.127205	0.017677	0.043684	0.011735	0.000851
2.677	0.231695	0.183155	0.029004	0.21023	0.033601	0.184468	0.068547	0.08029	0.006085	0.007109	0.375093	0.12855	0.017427	0.044614	0.011841	0.000815
2.6775	0.234749	0.185252	0.029668	0.213845	0.033744	0.182056	0.070163	0.080594	0.006085	0.007157	0.37855	0.129876	0.01718	0.045559	0.011949	0.000781
2.678	0.237821	0.187354	0.030342	0.217485	0.033887	0.179633	0.071801	0.080887	0.006085	0.007206	0.382001	0.131185	0.016933	0.046518	0.01206	0.000747
2.6785	0.240912	0.189461	0.031026	0.22115	0.034029	0.1772	0.073458	0.081168	0.006085	0.007257	0.385443	0.132475	0.016688	0.047493	0.012174	0.000716
2.679	0.244022	0.191573	0.03172	0.224838	0.034172	0.174758	0.075136	0.081438	0.006084	0.00731	0.388877	0.133744	0.016445	0.048482	0.012292	0.000685
2.6795	0.247152	0.19369	0.032423	0.228549	0.034314	0.172308	0.076835	0.081697	0.006083	0.007364	0.392301	0.134993	0.016203	0.049487	0.012412	0.000657
2.68	0.250301	0.195809	0.033137	0.232283	0.034456	0.169852	0.078553	0.081945	0.006081	0.007419	0.395715	0.136221	0.015962	0.050507	0.012535	0.00063
2.6805	0.253468	0.197933	0.03386	0.236038	0.034598	0.167391	0.080291	0.082182	0.006079	0.007476	0.399119	0.137426	0.015723	0.051542	0.012662	0.000605
2.681	0.256655	0.200059	0.034593	0.239815	0.034739	0.164927	0.082049	0.082408	0.006078	0.007534	0.402512	0.138608	0.015486	0.052593	0.012791	0.000583
2.6815	0.259862	0.202187	0.035336	0.243613	0.034881	0.162461	0.083826	0.082623	0.006075	0.007594	0.405893	0.139767	0.015251	0.053659	0.012925	0.000562
2.682	0.263087	0.204318	0.03609	0.247431	0.035022	0.159994	0.085622	0.082828	0.006073	0.007655	0.409261	0.1409	0.015017	0.054741	0.013061	0.000544
2.6825	0.266331	0.20645	0.036853	0.251269	0.035163	0.157528	0.087437	0.083023	0.00607	0.007718	0.412615	0.142009	0.014785	0.055838	0.013201	0.000528
2.683	0.269593	0.208584	0.037626	0.255126	0.035305	0.155063	0.089271	0.083208	0.006068	0.007783	0.415956	0.143093	0.014556	0.056952	0.013345	0.000514
2.6835	0.272874	0.210718	0.038408	0.259	0.035445	0.152601	0.091123	0.083383	0.006065	0.007849	0.419281	0.144152	0.014328	0.058082	0.013492	0.000503
2.684	0.276173	0.212852	0.039201	0.262893	0.035586	0.150143	0.092993	0.083548	0.006062	0.007916	0.422592	0.145185	0.014102	0.059228	0.013643	0.000495
2.6845	0.27949	0.214987	0.040004	0.266803	0.035727	0.14769	0.09488	0.083704	0.006058	0.007985	0.425888	0.146194	0.013879	0.060392	0.013797	0.00049
2.685	0.282824	0.21712	0.040817	0.270729	0.035867	0.145244	0.096784	0.08385	0.006055	0.008056	0.429168	0.147178	0.013657	0.061572	0.013955	0.000487
2.6855	0.286175	0.219252	0.04164	0.27467	0.036007	0.142805	0.098706	0.083988	0.006051	0.008128	0.432431	0.148137	0.013438	0.062769	0.014117	0.000488
2.686	0.289544	0.221383	0.042473	0.278627	0.036147	0.140374	0.100643	0.084116	0.006048	0.008201	0.435678	0.149072	0.013221	0.063983	0.014283	0.000492
2.6865	0.292928	0.22351	0.043316	0.282597	0.036286	0.137953	0.102597	0.084236	0.006044	0.008277	0.438907	0.149984	0.013006	0.065215	0.014452	0.000499
2.687	0.296328	0.225634	0.04417	0.286581	0.036426	0.135543	0.104565	0.084348	0.00604	0.008353	0.442117	0.150872	0.012794	0.066465	0.014625	0.00051
2.6875	0.299744	0.227753	0.045034	0.290578	0.036565	0.133144	0.106549	0.084452	0.006036	0.008431	0.445308	0.151736	0.012584	0.067732	0.014802	0.000524
2.688	0.303174	0.229868	0.045908	0.294587	0.036705	0.130757	0.108547	0.084549	0.006031	0.008511	0.448478	0.152578	0.012377	0.069018	0.014984	0.000542
2.6885	0.306618	0.231976	0.046793	0.298609	0.036844	0.128384	0.110559	0.084638	0.006027	0.008592	0.451628	0.153399	0.012172	0.070322	0.015169	0.000564
2.689	0.310075	0.234078	0.047689	0.302642	0.036984	0.126026	0.112584	0.08472	0.006022	0.008675	0.454754	0.154198	0.011969	0.071644	0.015358	0.000589
2.6895	0.313544	0.236171	0.048595	0.306687	0.037123	0.123683	0.114622	0.084795	0.006018	0.008759	0.457857	0.154976	0.011769	0.072986	0.015551	0.000619
2.69	0.317025	0.238257	0.049511	0.310742	0.037263	0.121356	0.116673	0.084864	0.006013	0.008845	0.460936	0.155736	0.011571	0.074345	0.015748	0.000653
2.6905	0.320515	0.240332	0.050439	0.314808	0.037404	0.119045	0.118735	0.084926	0.006008	0.008932	0.463988	0.156477	0.011377	0.075724	0.015949	0.000691
2.691	0.324014	0.242398	0.051377	0.318884	0.037545	0.116753	0.120808	0.084983	0.006003	0.00902	0.467012	0.1572	0.011184	0.077122	0.016155	0.000734
2.6915	0.327521	0.244453	0.052327	0.322969	0.037687	0.114479	0.122892	0.085033	0.005998	0.00911	0.470007	0.157906	0.010995	0.078539	0.016364	0.000781
2.692	0.331034	0.246497	0.053287	0.327063	0.037829	0.112223	0.124985	0.085079	0.005992	0.009201	0.472972	0.158596	0.010808	0.079975	0.016578	0.000833
2.6925	0.334552	0.248529	0.054258	0.331165	0.037972	0.109988	0.127089	0.085119	0.005987	0.009294	0.475904	0.159271	0.010624	0.081431	0.016795	0.00089
2.693	0.338073	0.250548	0.05524	0.335274	0.038116	0.107773	0.129201	0.085155	0.005981	0.009387	0.478803	0.159931	0.010442	0.082906	0.017017	0.000952
2.6935	0.341596	0.252554	0.056234	0.339391	0.03826	0.105579	0.131321	0.085186	0.005975	0.009483	0.481666	0.160577	0.010264	0.0844	0.017243	0.001019
2.694	0.345119	0.254547	0.057238	0.343513	0.038406	0.103407	0.133449	0.085214	0.005969	0.009579	0.484492	0.16121	0.010088	0.085913	0.017473	0.001091
2.6945	0.34864	0.256526	0.058254	0.347641	0.038552	0.101257	0.135583	0.085238	0.005963	0.009677	0.48728	0.16183	0.009914	0.087446	0.017707	0.001169
2.695	0.352158	0.25849	0.05928	0.351773	0.038699	0.09913	0.137723	0.08526	0.005957	0.009775	0.490027	0.162438	0.009744	0.088999	0.017945	0.001252
2.6955	0.355671	0.26044	0.060318	0.355909	0.038847	0.097025	0.139869	0.08528	0.00595	0.009875	0.492731	0.163034	0.009576	0.09057	0.018187	0.001341
2.696	0.359176	0.262374	0.061367	0.360047	0.038997	0.094945	0.142019	0.085298	0.005944	0.009977	0.495392	0.16362	0.009412	0.092161	0.018434	0.001436
2.6965	0.362673	0.264292	0.062427	0.364186	0.039147	0.092889	0.144172	0.085314	0.005937	0.010079	0.498007	0.164195	0.00925	0.09377	0.018684	0.001537
2.697	0.366159	0.266193	0.063497	0.368326	0.039299	0.090858	0.146328	0.08533	0.00593	0.010182	0.500573	0.164761	0.009091	0.095399	0.018939	0.001644
2.6975	0.369632	0.268078	0.064579	0.372465	0.039452	0.088852	0.148485	0.085345	0.005922	0.010286	0.50309	0.165317	0.008935	0.097046	0.019198	0.001758
2.698	0.37309	0.269944	0.065672	0.376601	0.039606	0.086871	0.150643	0.085361	0.005915	0.010391	0.505554	0.165864	0.008781	0.098712	0.019461	0.001878
2.6985	0.376531	0.271791	0.066775	0.380734	0.039762	0.084917	0.152801	0.085378	0.005907	0.010497	0.507963	0.166404	0.008631	0.100397	0.019728	0.002005
2.699	0.379953	0.27362	0.06789	0.384861	0.039921	0.082989	0.154959	0.085396	0.0059	0.010604	0.510315	0.166935	0.008483	0.1021	0.02	0.002139
2.6995	0.383356	0.275428	0.069015	0.388982	0.040081	0.081088	0.157114	0.085415	0.005892	0.010712	0.512609	0.16746	0.008339	0.103821	0.020276	0.00228
2.7	0.386736	0.277217	0.070151	0.393095	0.040243	0.079214	0.159266	0.085437	0.005883	0.01082	0.514842	0.167978	0.008197	0.10556	0.020556	0.002428
2.7005	0.390092	0.278984	0.071297	0.397198	0.040408	0.077367	0.161414	0.085462	0.005875	0.01093	0.517011	0.16849	0.008058	0.107316	0.02084	0.002584
2.701	0.393422	0.280729	0.072454	0.40129	0.040575	0.075548	0.163558	0.085489	0.005866	0.011039	0.519116	0.168995	0.007922	0.10909	0.021129	0.002747
2.7015	0.396725	0.282451	0.073621	0.405369	0.040745	0.073758	0.165695	0.085521	0.005857	0.011149	0.521155	0.169496	0.007789	0.11088	0.021422	0.002917
2.702	0.399998	0.28415	0.074799	0.409435	0.040918	0.071995	0.167826	0.085556	0.005848	0.01126	0.523125	0.169991	0.007659	0.112688	0.02172	0.003096
2.7025	0.40324	0.285824	0.075986	0.413484	0.041095	0.070261	0.16995	0.085596	0.005838	0.011371	0.525026	0.17048	0.007532	0.114512	0.022022	0.003283
2.703	0.406448	0.287474	0.077184	0.417516	0.041274	0.068557	0.172065	0.08564	0.005828	0.011482	0.526856	0.170965	0.007408	0.116351	0.022329	0.003478
2.7035	0.409622	0.289097	0.078391	0.421528	0.041457	0.066881	0.17417	0.08569	0.005818	0.011593	0.528614	0.171446	0.007286	0.118207	0.02264	0.003681
2.704	0.412758	0.290693	0.079608	0.425518	0.041644	0.065234	0.176264	0.085745	0.005808	0.011705	0.530297	0.171922	0.007168	0.120078	0.022956	0.003893
2.7045	0.415854	0.29226	0.080835	0.429486	0.041834	0.063618	0.178347	0.085807	0.005797	0.011817	0.531905	0.172393	0.007052	0.121964	0.023276	0.004114
2.705	0.41891	0.293798	0.082071	0.433428	0.042028	0.062031	0.180417	0.085874	0.005786	0.011928	0.533437	0.17286	0.006939	0.123864	0.023602	0.004343
2.7055	0.421923	0.295306	0.083316	0.437342	0.042227	0.060474	0.182473	0.085948	0.005775	0.01204	0.534893	0.173322	0.006829	0.125779	0.023933	0.004582
2.706	0.424893	0.296781	0.08457	0.441227	0.04243	0.058947	0.184514	0.086028	0.005763	0.012151	0.536272	0.17378	0.006722	0.127706	0.024268	0.00483
2.7065	0.427818	0.298224	0.085834	0.445079	0.042637	0.057451	0.186538	0.086116	0.005751	0.012262	0.537574	0.174233	0.006618	0.129647	0.024609	0.005087
2.707	0.430696	0.299632	0.087106	0.448898	0.04285	0.055985	0.188545	0.086211	0.005739	0.012373	0.538801	0.174681	0.006517	0.1316	0.024956	0.005354
2.7075	0.433528	0.301004	0.088387	0.45268	0.043067	0.05455	0.190534	0.086314	0.005726	0.012483	0.539951	0.175125	0.006418	0.133566	0.025307	0.005631
2.708	0.436311	0.30234	0.089676	0.456425	0.04329	0.053146	0.192502	0.086424	0.005713	0.012593	0.541025	0.175564	0.006322	0.135543	0.025665	0.005918
2.7085	0.439046	0.303638	0.090974	0.460129	0.043518	0.051773	0.194448	0.086543	0.0057	0.012703	0.542023	0.175997	0.006229	0.137531	0.026028	0.006215
2.709	0.441731	0.304898	0.092281	0.463791	0.043752	0.050432	0.196372	0.08667	0.005686	0.012812	0.542945	0.176426	0.006138	0.139529	0.026397	0.006522
2.7095	0.444365	0.306119	0.093595	0.46741	0.043992	0.049122	0.198273	0.086806	0.005672	0.01292	0.54379	0.176851	0.00605	0.141538	0.026772	0.00684
2.71	0.446947	0.3073	0.094918	0.470982	0.044238	0.047844	0.200148	0.08695	0.005658	0.013028	0.54456	0.17727	0.005965	0.143556	0.027153	0.007168
2.7105	0.449476	0.30844	0.096248	0.474507	0.044491	0.046599	0.201998	0.087104	0.005643	0.013135	0.545253	0.177685	0.005883	0.145584	0.02754	0.007508
2.711	0.451951	0.309539	0.097587	0.477984	0.04475	0.045386	0.203822	0.087266	0.005628	0.013242	0.54587	0.178096	0.005803	0.14762	0.027933	0.007858
2.7115	0.45437	0.310596	0.098933	0.481409	0.045016	0.044205	0.205618	0.087438	0.005613	0.013347	0.546411	0.178502	0.005726	0.149664	0.028332	0.00822
2.712	0.456734	0.311611	0.100286	0.484783	0.045289	0.043058	0.207385	0.08762	0.005598	0.013452	0.546877	0.178903	0.005651	0.151716	0.028738	0.008593
2.7125	0.459041	0.312584	0.101647	0.488104	0.04557	0.041944	0.209124	0.087811	0.005583	0.013555	0.547267	0.1793	0.00558	0.153775	0.02915	0.008978
2.713	0.461291	0.313514	0.103015	0.491373	0.045857	0.040864	0.210833	0.088012	0.005567	0.013658	0.547582	0.179693	0.00551	0.155841	0.029569	0.009375
2.7135	0.463483	0.3144	0.10439	0.494587	0.046152	0.039817	0.212511	0.088222	0.005552	0.01376	0.547822	0.180081	0.005444	0.157914	0.029994	0.009784
2.714	0.465617	0.315243	0.105773	0.497748	0.046455	0.038805	0.214158	0.088443	0.005536	0.01386	0.547986	0.180464	0.00538	0.159993	0.030426	0.010205
2.7145	0.467694	0.316041	0.107162	0.500856	0.046765	0.037827	0.215772	0.088674	0.005521	0.013959	0.548077	0.180842	0.005319	0.162078	0.030865	0.010638
2.715	0.469713	0.316794	0.108558	0.503909	0.047083	0.036883	0.217354	0.088915	0.005505	0.014057	0.548093	0.181214	0.00526	0.164168	0.031311	0.011085
2.7155	0.471674	0.317502	0.109961	0.506907	0.04741	0.035975	0.218902	0.089166	0.00549	0.014154	0.548035	0.181581	0.005204	0.166263	0.031764	0.011544
2.716	0.473579	0.318165	0.11137	0.509852	0.047744	0.035102	0.220415	0.089428	0.005475	0.014249	0.547904	0.181943	0.00515	0.168362	0.032224	0.012016
2.7165	0.475428	0.318783	0.112786	0.512742	0.048087	0.034264	0.221892	0.0897	0.005459	0.014343	0.547701	0.182298	0.0051	0.170466	0.032691	0.012501
2.717	0.47722	0.319357	0.114208	0.515577	0.048438	0.033462	0.223333	0.089982	0.005445	0.014435	0.547427	0.182647	0.005052	0.172573	0.033165	0.013
2.7175	0.478957	0.319885	0.115636	0.518357	0.048798	0.032695	0.224736	0.090274	0.00543	0.014526	0.547083	0.182989	0.005006	0.174683	0.033646	0.013512
2.718	0.480638	0.320369	0.117069	0.521082	0.049167	0.031965	0.226102	0.090576	0.005415	0.014615	0.54667	0.183324	0.004963	0.176796	0.034135	0.014038
2.7185	0.482265	0.32081	0.118509	0.523752	0.049545	0.031271	0.227429	0.090888	0.005401	0.014703	0.546188	0.183652	0.004923	0.178911	0.034632	0.014578
2.719	0.483837	0.321207	0.119954	0.526365	0.049931	0.030613	0.228718	0.09121	0.005388	0.014789	0.545639	0.183972	0.004886	0.181027	0.035136	0.015132
2.7195	0.485357	0.321562	0.121404	0.528923	0.050327	0.029992	0.229967	0.091541	0.005374	0.014874	0.545025	0.184285	0.004851	0.183144	0.035647	0.015701
2.72	0.486823	0.321875	0.12286	0.531424	0.050732	0.029408	0.231177	0.091882	0.005361	0.014958	0.544347	0.18459	0.004819	0.185261	0.036167	0.016283
2.7205	0.48824	0.322146	0.12432	0.533869	0.051146	0.028861	0.232348	0.092233	0.005349	0.01504	0.543608	0.184886	0.004789	0.187377	0.036695	0.016881
2.721	0.489606	0.322376	0.125786	0.536257	0.051569	0.028352	0.233478	0.092593	0.005338	0.01512	0.542809	0.185175	0.004763	0.189492	0.037231	0.017493
2.7215	0.490925	0.322566	0.127256	0.53859	0.052002	0.02788	0.23457	0.092961	0.005327	0.015199	0.541953	0.185454	0.004739	0.191605	0.037776	0.018121
2.722	0.492198	0.322715	0.128732	0.540866	0.052444	0.027445	0.235621	0.093339	0.005316	0.015277	0.541043	0.185724	0.004718	0.193715	0.03833	0.018763
2.7225	0.493426	0.322825	0.130213	0.543086	0.052896	0.027049	0.236633	0.093725	0.005307	0.015354	0.54008	0.185985	0.004699	0.195822	0.038892	0.019421
2.723	0.494611	0.322895	0.131699	0.545251	0.053357	0.026691	0.237604	0.09412	0.005299	0.015429	0.539066	0.186236	0.004684	0.197924	0.039465	0.020095
2.7235	0.495755	0.322925	0.13319	0.54736	0.053828	0.026371	0.238536	0.094522	0.005291	0.015504	0.538004	0.186476	0.004671	0.200023	0.040047	0.020784
2.724	0.496859	0.322916	0.134686	0.549414	0.054308	0.02609	0.239428	0.094934	0.005285	0.015577	0.536896	0.186707	0.004661	0.202116	0.040639	0.02149
2.7245	0.497924	0.322868	0.136187	0.551412	0.054798	0.025848	0.240279	0.095353	0.00528	0.015649	0.535743	0.186926	0.004654	0.204204	0.041242	0.022212
2.725	0.498952	0.322782	0.137694	0.553355	0.055297	0.025645	0.24109	0.095779	0.005277	0.01572	0.534548	0.187135	0.00465	0.206287	0.041856	0.02295
2.7255	0.499944	0.322656	0.139206	0.555243	0.055806	0.025481	0.241859	0.096214	0.005274	0.01579	0.533313	0.187332	0.004648	0.208363	0.04248	0.023706
2.726	0.5009	0.322492	0.140723	0.557076	0.056325	0.025357	0.242588	0.096656	0.005274	0.015859	0.532038	0.187518	0.00465	0.210433	0.043116	0.024478
2.7265	0.501823	0.322288	0.142245	0.558853	0.056853	0.025272	0.243275	0.097106	0.005275	0.015927	0.530725	0.187692	0.004655	0.212496	0.043764	0.025269
2.727	0.502713	0.322046	0.143773	0.560575	0.05739	0.025227	0.243921	0.097562	0.005277	0.015994	0.529377	0.187854	0.004663	0.214551	0.044423	0.026076
2.7275	0.503571	0.321764	0.145305	0.562242	0.057937	0.025222	0.244526	0.098026	0.005282	0.01606	0.527994	0.188004	0.004673	0.216599	0.045095	0.026902
2.728	0.504398	0.321443	0.146842	0.563853	0.058493	0.025258	0.245088	0.098497	0.005289	0.016126	0.526578	0.188142	0.004687	0.218638	0.04578	0.027746
2.7285	0.505195	0.321081	0.148384	0.56541	0.059059	0.025333	0.245609	0.098974	0.005297	0.016191	0.52513	0.188269	0.004704	0.220667	0.046479	0.028608
2.729	0.505962	0.32068	0.149931	0.566911	0.059634	0.02545	0.246088	0.099458	0.005308	0.016255	0.523651	0.188383	0.004725	0.222687	0.047191	0.029489
2.7295	0.506701	0.320238	0.151482	0.568357	0.060218	0.025607	0.246526	0.099948	0.005321	0.016319	0.522143	0.188486	0.004748	0.224696	0.047918	0.030389
2.73	0.507412	0.319756	0.153038	0.569748	0.060811	0.025806	0.246923	0.100445	0.005336	0.016382	0.520607	0.188576	0.004775	0.226695	0.048659	0.031308
2.7305	0.508096	0.319232	0.154597	0.571084	0.061413	0.026045	0.247278	0.100947	0.005354	0.016445	0.519045	0.188653	0.004805	0.228682	0.049416	0.032247
2.731	0.508753	0.318667	0.156161	0.572364	0.062024	0.026326	0.247593	0.101456	0.005375	0.016507	0.517459	0.188719	0.004838	0.230658	0.050188	0.033206
2.7315	0.509384	0.31806	0.157727	0.573589	0.062644	0.026649	0.247867	0.10197	0.005398	0.016569	0.515851	0.188771	0.004875	0.232621	0.050977	0.034185
2.732	0.509988	0.317412	0.159297	0.574758	0.063271	0.027013	0.248102	0.102489	0.005424	0.016632	0.514223	0.188812	0.004916	0.234571	0.051783	0.035185
2.7325	0.510566	0.316723	0.16087	0.575872	0.063908	0.027419	0.248297	0.103013	0.005453	0.016694	0.512576	0.188839	0.004959	0.236508	0.052606	0.036205
2.733	0.511119	0.315991	0.162446	0.57693	0.064552	0.027867	0.248453	0.103542	0.005485	0.016756	0.510912	0.188854	0.005007	0.238431	0.053447	0.037247
2.7335	0.511646	0.315219	0.164023	0.577932	0.065204	0.028357	0.24857	0.104076	0.005521	0.016819	0.509232	0.188856	0.005058	0.240339	0.054307	0.03831
2.734	0.512148	0.314405	0.165602	0.578879	0.065865	0.02889	0.248648	0.104615	0.005559	0.016883	0.507539	0.188845	0.005112	0.242232	0.055185	0.039394
2.7345	0.512624	0.313551	0.167182	0.579772	0.066532	0.029465	0.248688	0.105158	0.005602	0.016947	0.505833	0.188821	0.005171	0.244108	0.056082	0.040501
2.735	0.513075	0.312656	0.168762	0.580609	0.067208	0.030083	0.248691	0.105705	0.005647	0.017013	0.504116	0.188784	0.005233	0.245966	0.056999	0.04163
2.7355	0.513501	0.311722	0.170342	0.581391	0.067891	0.030744	0.248655	0.106256	0.005697	0.017079	0.502388	0.188733	0.005299	0.247807	0.057935	0.042782
2.736	0.513901	0.310749	0.171922	0.582118	0.068581	0.031448	0.248582	0.106811	0.005751	0.017147	0.500652	0.188669	0.005368	0.249629	0.058892	0.043957
2.7365	0.514274	0.309737	0.173502	0.582791	0.069279	0.032195	0.248472	0.107369	0.005808	0.017216	0.498908	0.188591	0.005442	0.251432	0.059869	0.045155
2.737	0.51462	0.308687	0.175079	0.583408	0.069984	0.032985	0.248326	0.107932	0.00587	0.017287	0.497157	0.188499	0.00552	0.253214	0.060868	0.046377
2.7375	0.51494	0.307599	0.176655	0.58397	0.070696	0.033819	0.248144	0.108497	0.005936	0.01736	0.4954	0.188393	0.005602	0.254974	0.061888	0.047622
2.738	0.515231	0.306473	0.178228	0.584478	0.071415	0.034696	0.247927	0.109066	0.006007	0.017434	0.493638	0.188272	0.005688	0.256713	0.062929	0.048892
2.7385	0.515493	0.30531	0.179797	0.584931	0.072141	0.035617	0.247675	0.109637	0.006082	0.017511	0.491871	0.188137	0.005779	0.258428	0.063993	0.050186
2.739	0.515726	0.30411	0.181363	0.585328	0.072874	0.036582	0.247389	0.110211	0.006162	0.017591	0.4901	0.187986	0.005873	0.26012	0.065078	0.051505
2.7395	0.51593	0.302874	0.182925	0.58567	0.073613	0.037591	0.247069	0.110788	0.006247	0.017673	0.488325	0.187821	0.005972	0.261787	0.066187	0.052849
2.74	0.516103	0.301601	0.184481	0.585956	0.074359	0.038644	0.246717	0.111367	0.006337	0.017758	0.486547	0.187641	0.006076	0.263429	0.067318	0.054219
2.7405	0.516245	0.300293	0.186033	0.586187	0.075111	0.03974	0.246334	0.111948	0.006432	0.017846	0.484767	0.187446	0.006184	0.265045	0.068472	0.055615
2.741	0.516356	0.298949	0.187578	0.58636	0.075869	0.040882	0.245919	0.11253	0.006533	0.017938	0.482983	0.187236	0.006296	0.266635	0.069649	0.057037
2.7415	0.516435	0.29757	0.189117	0.586478	0.076634	0.042067	0.245473	0.113115	0.006639	0.018034	0.481197	0.187012	0.006413	0.268198	0.07085	0.058486
2.742	0.516481	0.296158	0.190649	0.586539	0.077404	0.043297	0.244998	0.113701	0.006751	0.018134	0.479408	0.186774	0.006535	0.269733	0.072076	0.059962
2.7425	0.516493	0.294711	0.192174	0.586544	0.078181	0.044571	0.244494	0.114289	0.006868	0.018238	0.477616	0.186522	0.006662	0.271241	0.073325	0.061466
2.743	0.51647	0.293232	0.193692	0.586495	0.078963	0.04589	0.243961	0.114879	0.006992	0.018348	0.47582	0.186257	0.006793	0.272719	0.074599	0.062998
2.7435	0.516412	0.291721	0.195202	0.586392	0.079751	0.047253	0.243399	0.115472	0.007121	0.018463	0.474021	0.185979	0.006929	0.274169	0.075898	0.064559
2.744	0.516317	0.290178	0.196705	0.586235	0.080545	0.04866	0.242811	0.116066	0.007257	0.018583	0.472217	0.185689	0.00707	0.275589	0.077221	0.066148
2.7445	0.516184	0.288605	0.1982	0.586025	0.081344	0.050113	0.242195	0.116664	0.007399	0.018709	0.470408	0.185386	0.007216	0.276979	0.078571	0.067767
2.745	0.516013	0.287002	0.199686	0.585764	0.082149	0.05161	0.241553	0.117264	0.007548	0.018842	0.468593	0.185072	0.007367	0.278339	0.079946	0.069416
2.7455	0.515803	0.285369	0.201165	0.585451	0.082958	0.053151	0.240886	0.117867	0.007704	0.018981	0.466772	0.184748	0.007523	0.279668	0.081346	0.071095
2.746	0.515554	0.283709	0.202635	0.585089	0.083773	0.054737	0.240194	0.118474	0.007866	0.019128	0.464944	0.184413	0.007685	0.280968	0.082773	0.072805
2.7465	0.515264	0.282021	0.204097	0.584677	0.084592	0.056367	0.239479	0.119085	0.008036	0.019281	0.463107	0.18407	0.007852	0.282238	0.084226	0.074546
2.747	0.514933	0.280307	0.20555	0.584216	0.085416	0.058043	0.23874	0.119699	0.008214	0.019443	0.461262	0.183718	0.008024	0.283479	0.085706	0.076318
2.7475	0.51456	0.278567	0.206996	0.583707	0.086244	0.059762	0.237979	0.120318	0.008399	0.019612	0.459408	0.183359	0.008201	0.28469	0.087212	0.078123
2.748	0.514143	0.276803	0.208432	0.583152	0.087077	0.061526	0.237196	0.120941	0.008591	0.01979	0.457544	0.182995	0.008384	0.285872	0.088745	0.079959
2.7485	0.513682	0.275015	0.20986	0.58255	0.087913	0.063334	0.236393	0.121568	0.008792	0.019977	0.45567	0.182625	0.008573	0.287026	0.090305	0.081829
2.749	0.513177	0.273204	0.211279	0.581903	0.088754	0.065186	0.23557	0.122201	0.009	0.020173	0.453784	0.182252	0.008767	0.288151	0.091892	0.083731
2.7495	0.512624	0.271371	0.212688	0.581212	0.089598	0.067083	0.234728	0.122838	0.009217	0.020379	0.451886	0.181876	0.008968	0.289248	0.093506	0.085667
2.75	0.512025	0.269515	0.214088	0.580477	0.090446	0.069023	0.233867	0.123481	0.009443	0.020595	0.449976	0.181497	0.009174	0.290317	0.095148	0.087637
2.7505	0.511378	0.267639	0.215478	0.579699	0.091297	0.071007	0.23299	0.12413	0.009677	0.020821	0.448054	0.181117	0.009386	0.291357	0.096816	0.089641
2.751	0.510681	0.265743	0.216857	0.578878	0.092152	0.073035	0.232096	0.124785	0.00992	0.021059	0.446119	0.180737	0.009604	0.29237	0.098511	0.091679
2.7515	0.509936	0.263827	0.218226	0.578016	0.09301	0.075106	0.231185	0.125446	0.010172	0.021308	0.444172	0.180357	0.009828	0.293355	0.100234	0.093753
2.752	0.50914	0.261891	0.219584	0.577113	0.093872	0.077221	0.23026	0.126113	0.010433	0.021569	0.442213	0.179979	0.010058	0.294311	0.101984	0.095861
2.7525	0.508293	0.259937	0.220931	0.57617	0.094737	0.079378	0.229319	0.126787	0.010704	0.021843	0.440242	0.179602	0.010294	0.29524	0.103762	0.098005
2.753	0.507395	0.257964	0.222266	0.575188	0.095604	0.081578	0.228365	0.127468	0.010984	0.02213	0.438259	0.179227	0.010537	0.296142	0.105567	0.100184
2.7535	0.506445	0.255973	0.223589	0.574167	0.096475	0.083821	0.227397	0.128156	0.011274	0.022431	0.436264	0.178855	0.010786	0.297015	0.107399	0.1024
2.754	0.505443	0.253965	0.224899	0.573109	0.097349	0.086106	0.226417	0.128852	0.011573	0.022747	0.434258	0.178487	0.011041	0.29786	0.109259	0.104651
2.7545	0.504388	0.251939	0.226197	0.572013	0.098226	0.088433	0.225424	0.129556	0.011883	0.023077	0.43224	0.178123	0.011304	0.298676	0.111146	0.106939
2.755	0.503281	0.249896	0.227482	0.57088	0.099106	0.090801	0.224419	0.130269	0.012203	0.023422	0.43021	0.177763	0.011572	0.299464	0.113061	0.109263
2.7555	0.502119	0.247835	0.228753	0.569712	0.099988	0.09321	0.223404	0.13099	0.012534	0.023783	0.428167	0.177408	0.011848	0.300223	0.115003	0.111624
2.756	0.500902	0.245758	0.230011	0.568507	0.100873	0.095661	0.222379	0.13172	0.012875	0.024161	0.426112	0.177057	0.01213	0.300953	0.116972	0.114022
2.7565	0.499631	0.243665	0.231255	0.567267	0.101761	0.098152	0.221345	0.132459	0.013227	0.024555	0.424044	0.176712	0.012419	0.301654	0.118969	0.116456
2.757	0.498305	0.241556	0.232485	0.565992	0.102651	0.100683	0.220301	0.133208	0.01359	0.024967	0.421964	0.176373	0.012715	0.302324	0.120992	0.118928
2.7575	0.496924	0.239431	0.2337	0.564682	0.103544	0.103254	0.219251	0.133966	0.013964	0.025396	0.419871	0.17604	0.013018	0.302963	0.123042	0.121437
2.758	0.495488	0.23729	0.234902	0.563336	0.10444	0.105864	0.218193	0.134735	0.014349	0.025844	0.417766	0.175712	0.013328	0.303572	0.125119	0.123983
2.7585	0.493998	0.235135	0.23609	0.561955	0.105338	0.108513	0.217129	0.135515	0.014746	0.026311	0.415649	0.175391	0.013645	0.304149	0.127223	0.126567
2.759	0.492454	0.232966	0.237263	0.560538	0.10624	0.111201	0.21606	0.136305	0.015155	0.026797	0.413521	0.175076	0.01397	0.304694	0.129352	0.129188
2.7595	0.490858	0.230783	0.238422	0.559085	0.107144	0.113926	0.214986	0.137108	0.015575	0.027303	0.411383	0.174767	0.014301	0.305206	0.131508	0.131847
2.76	0.489209	0.228588	0.239567	0.557596	0.108051	0.116689	0.213909	0.137923	0.016007	0.02783	0.409234	0.174465	0.014641	0.305685	0.133689	0.134542
2.7605	0.487509	0.22638	0.240699	0.556069	0.108961	0.119489	0.212829	0.13875	0.016452	0.028379	0.407075	0.17417	0.014987	0.30613	0.135896	0.137276
2.761	0.485759	0.224161	0.241816	0.554505	0.109874	0.122326	0.211747	0.139591	0.016909	0.028948	0.404906	0.173881	0.015342	0.306542	0.138129	0.140046
2.7615	0.483959	0.22193	0.242921	0.552903	0.11079	0.125198	0.210663	0.140445	0.017379	0.029541	0.402728	0.173598	0.015704	0.306919	0.140386	0.142854
2.762	0.48211	0.21969	0.244011	0.551263	0.111709	0.128105	0.209579	0.141313	0.017861	0.030156	0.400541	0.173323	0.016073	0.307261	0.142668	0.145698
2.7625	0.480212	0.21744	0.245089	0.549584	0.112631	0.131047	0.208494	0.142196	0.018356	0.030796	0.398344	0.173056	0.016451	0.307568	0.144975	0.14858
2.763	0.478267	0.215181	0.246154	0.547867	0.113557	0.134023	0.207409	0.143094	0.018864	0.03146	0.396139	0.172796	0.016836	0.307839	0.147305	0.151498
2.7635	0.476274	0.212914	0.247205	0.54611	0.114486	0.137032	0.206324	0.144008	0.019385	0.032148	0.393926	0.172544	0.01723	0.308074	0.14966	0.154452
2.764	0.474236	0.210639	0.248244	0.544313	0.115419	0.140074	0.205241	0.144939	0.019919	0.032863	0.391704	0.172302	0.017631	0.308273	0.152038	0.157443
2.7645	0.472152	0.208357	0.24927	0.542474	0.116355	0.143147	0.204159	0.145885	0.020467	0.033604	0.389474	0.172068	0.01804	0.308434	0.154439	0.16047
2.765	0.470024	0.206069	0.250283	0.540594	0.117294	0.146252	0.203079	0.146849	0.021028	0.034372	0.387235	0.171845	0.018458	0.308557	0.156864	0.163532
2.7655	0.467853	0.203775	0.251283	0.538672	0.118238	0.149386	0.202	0.14783	0.021603	0.035168	0.384989	0.171631	0.018884	0.308642	0.159311	0.166629
2.766	0.46564	0.201477	0.25227	0.536706	0.119185	0.15255	0.200925	0.148829	0.022192	0.035991	0.382734	0.171428	0.019318	0.308688	0.161782	0.169762
2.7665	0.463386	0.199175	0.253243	0.534697	0.120136	0.155743	0.199852	0.149845	0.022794	0.036844	0.380473	0.171235	0.01976	0.308693	0.164276	0.172929
2.767	0.461092	0.196871	0.254202	0.532643	0.121091	0.158963	0.198783	0.15088	0.023411	0.037726	0.378204	0.171053	0.020211	0.308657	0.166794	0.17613
2.7675	0.458759	0.194566	0.255146	0.530544	0.12205	0.162211	0.197718	0.151933	0.024042	0.038639	0.375928	0.170883	0.02067	0.30858	0.169335	0.179366
2.768	0.456388	0.19226	0.256076	0.5284	0.123012	0.165484	0.196658	0.153005	0.024687	0.039582	0.373645	0.170725	0.021137	0.308461	0.171899	0.182634
2.7685	0.453981	0.189955	0.25699	0.52621	0.123979	0.168784	0.195602	0.154096	0.025346	0.040557	0.371355	0.170578	0.021613	0.308299	0.174487	0.185936
2.769	0.451538	0.187651	0.25789	0.523973	0.124949	0.172109	0.194552	0.155206	0.02602	0.041564	0.369058	0.170443	0.022098	0.308095	0.177098	0.18927
2.7695	0.449059	0.18535	0.258773	0.521688	0.125924	0.175457	0.193509	0.156335	0.026709	0.042603	0.366754	0.170321	0.022591	0.307848	0.179734	0.192637
2.77	0.446546	0.183052	0.259641	0.519356	0.126902	0.178829	0.192472	0.157483	0.027412	0.043676	0.364442	0.170212	0.023092	0.307558	0.182393	0.196034
2.7705	0.444	0.180758	0.260492	0.516976	0.127885	0.182224	0.191442	0.158651	0.028131	0.044782	0.362123	0.170115	0.023602	0.307225	0.185075	0.199463
2.771	0.441421	0.178469	0.261327	0.514547	0.128873	0.185641	0.19042	0.159838	0.028865	0.045924	0.359796	0.170033	0.02412	0.30685	0.187782	0.202922
2.7715	0.438811	0.176185	0.262145	0.512071	0.129865	0.189078	0.189406	0.161044	0.029614	0.0471	0.357462	0.169964	0.024647	0.306433	0.190512	0.206412
2.772	0.436171	0.173909	0.262945	0.509546	0.130862	0.192536	0.1884	0.16227	0.030379	0.048312	0.355121	0.169911	0.025183	0.305973	0.193266	0.20993
2.7725	0.433502	0.17164	0.263728	0.506975	0.131864	0.196012	0.187403	0.163515	0.031159	0.04956	0.352774	0.169873	0.025727	0.305471	0.196044	0.213477
2.773	0.430806	0.169379	0.264493	0.504358	0.132873	0.199508	0.186415	0.16478	0.031954	0.050845	0.350421	0.169851	0.026279	0.304927	0.198845	0.217052
2.7735	0.428082	0.167127	0.265239	0.501695	0.133887	0.20302	0.185437	0.166065	0.032766	0.052168	0.348062	0.169846	0.02684	0.304341	0.201671	0.220654
2.774	0.425333	0.164886	0.265966	0.498989	0.134908	0.206549	0.184467	0.167369	0.033593	0.05353	0.3457	0.169858	0.027409	0.303713	0.20452	0.224283
2.7745	0.42256	0.162655	0.266675	0.496239	0.135936	0.210093	0.183507	0.168693	0.034436	0.05493	0.343336	0.169888	0.027987	0.303044	0.207394	0.227936
2.775	0.419762	0.160436	0.267363	0.493449	0.136972	0.213651	0.182557	0.170037	0.035296	0.056369	0.340969	0.169936	0.028573	0.302334	0.210291	0.231615
2.7755	0.416943	0.158229	0.268031	0.490618	0.138015	0.217223	0.181616	0.171401	0.036171	0.057849	0.338602	0.170002	0.029167	0.301584	0.213212	0.235317
2.776	0.414101	0.156035	0.268678	0.48775	0.139066	0.220807	0.180685	0.172786	0.037063	0.059369	0.336235	0.170088	0.029769	0.300795	0.216157	0.239042
2.7765	0.411239	0.153855	0.269304	0.484845	0.140125	0.224402	0.179764	0.174191	0.037971	0.060931	0.33387	0.170193	0.03038	0.299966	0.219126	0.242789
2.777	0.408357	0.151688	0.269908	0.481906	0.141193	0.228009	0.178852	0.175617	0.038895	0.062534	0.331508	0.170317	0.030999	0.299099	0.222118	0.246556
2.7775	0.405458	0.149537	0.270491	0.478934	0.142269	0.231626	0.17795	0.177064	0.039835	0.06418	0.32915	0.170461	0.031626	0.298194	0.225134	0.250343
2.778	0.402542	0.1474	0.271053	0.47593	0.143353	0.235252	0.177058	0.178532	0.040792	0.06587	0.326797	0.170625	0.032261	0.297252	0.228174	0.254148
2.7785	0.39961	0.14528	0.271594	0.472896	0.144447	0.238888	0.176175	0.180021	0.041766	0.067602	0.324451	0.17081	0.032903	0.296274	0.231236	0.257971
2.779	0.396665	0.143176	0.272113	0.469834	0.145549	0.242532	0.175303	0.181532	0.042756	0.069379	0.322114	0.171015	0.033554	0.295261	0.234321	0.26181
2.7795	0.393709	0.141089	0.272612	0.466745	0.14666	0.246183	0.174441	0.183064	0.043764	0.071201	0.319786	0.17124	0.034212	0.294214	0.237428	0.265665
2.78	0.390742	0.139019	0.27309	0.463631	0.147781	0.249842	0.17359	0.184619	0.044788	0.073068	0.317469	0.171486	0.034878	0.293134	0.240557	0.269534
2.7805	0.387768	0.136968	0.273547	0.460493	0.14891	0.253508	0.17275	0.186196	0.045828	0.074981	0.315165	0.171753	0.035551	0.292021	0.243708	0.273417
2.781	0.384788	0.134935	0.273984	0.457333	0.150049	0.257181	0.171921	0.187795	0.046886	0.07694	0.312874	0.172041	0.036232	0.290877	0.246879	0.277312
2.7815	0.381804	0.132922	0.274401	0.454153	0.151198	0.26086	0.171103	0.189417	0.047961	0.078946	0.310599	0.17235	0.036919	0.289702	0.250071	0.281219
2.782	0.378819	0.130929	0.274797	0.450952	0.152356	0.264546	0.170296	0.191063	0.049052	0.081	0.308339	0.172679	0.037614	0.288497	0.253283	0.285136
2.7825	0.375834	0.128957	0.275174	0.447734	0.153524	0.268237	0.169501	0.192731	0.050161	0.083101	0.306098	0.173031	0.038316	0.287263	0.256514	0.289063
2.783	0.372851	0.127006	0.27553	0.444499	0.154703	0.271935	0.168717	0.194423	0.051287	0.08525	0.303875	0.173404	0.039025	0.286002	0.259765	0.292999
2.7835	0.369872	0.125076	0.275867	0.44125	0.155893	0.275638	0.167944	0.196138	0.052429	0.087448	0.301673	0.1738	0.039741	0.284714	0.263034	0.296942
2.784	0.366898	0.123169	0.276184	0.437986	0.157094	0.279346	0.167184	0.197877	0.053589	0.089696	0.299492	0.174218	0.040463	0.283402	0.266322	0.300894
2.7845	0.363932	0.121284	0.276482	0.434711	0.158307	0.28306	0.166434	0.19964	0.054766	0.091993	0.297333	0.17466	0.041191	0.282066	0.269628	0.304851
2.785	0.360975	0.119423	0.27676	0.431425	0.159533	0.28678	0.165697	0.201426	0.05596	0.09434	0.295199	0.175126	0.041925	0.280708	0.272953	0.308815
2.7855	0.358029	0.117584	0.27702	0.428129	0.160771	0.290505	0.164971	0.203236	0.05717	0.096737	0.293089	0.175616	0.042665	0.279328	0.276295	0.312783
2.786	0.355096	0.11577	0.277262	0.424827	0.162023	0.294235	0.164256	0.20507	0.058399	0.099186	0.291005	0.176131	0.043411	0.277929	0.279654	0.316756
2.7865	0.352177	0.11398	0.277485	0.421518	0.163288	0.29797	0.163553	0.206928	0.059644	0.101685	0.288948	0.176671	0.044163	0.276511	0.28303	0.320732
2.787	0.349275	0.112214	0.277692	0.418204	0.164568	0.30171	0.162862	0.20881	0.060906	0.104235	0.28692	0.177238	0.044919	0.275075	0.286423	0.32471
2.7875	0.346391	0.110473	0.277882	0.414886	0.165862	0.305454	0.162182	0.210715	0.062185	0.106838	0.284921	0.177832	0.045681	0.273622	0.289831	0.328688
2.788	0.343528	0.108757	0.278056	0.411567	0.167171	0.309203	0.161514	0.212644	0.063482	0.109492	0.282952	0.178453	0.046448	0.272154	0.293254	0.332667
2.7885	0.340687	0.107066	0.278216	0.408246	0.168495	0.312955	0.160858	0.214595	0.064796	0.112198	0.281015	0.179102	0.047219	0.270672	0.296691	0.336644
2.789	0.337871	0.105401	0.278362	0.404927	0.169834	0.316712	0.160213	0.21657	0.066127	0.114956	0.27911	0.179779	0.047995	0.269175	0.300142	0.340618
2.7895	0.335081	0.103762	0.278497	0.40161	0.171189	0.320473	0.15958	0.218567	0.067475	0.117766	0.277238	0.180486	0.048774	0.267667	0.303605	0.344588
2.79	0.332319	0.102149	0.278621	0.398296	0.17256	0.324238	0.158958	0.220586	0.06884	0.12063	0.2754	0.181223	0.049557	0.266146	0.30708	0.348553
2.7905	0.329587	0.100563	0.278735	0.394988	0.173947	0.328006	0.158348	0.222628	0.070223	0.123545	0.273597	0.181991	0.050344	0.264615	0.310566	0.352512
2.791	0.326887	0.099002	0.278841	0.391687	0.17535	0.33178	0.15775	0.22469	0.071624	0.126514	0.27183	0.18279	0.051134	0.263073	0.31406	0.356463
2.7915	0.324221	0.097469	0.27894	0.388394	0.176769	0.335557	0.157164	0.226775	0.073042	0.129535	0.270099	0.183621	0.051927	0.261522	0.317564	0.360404
2.792	0.321589	0.095962	0.279034	0.385112	0.178205	0.339339	0.156589	0.22888	0.074478	0.132609	0.268406	0.184485	0.052722	0.259962	0.321074	0.364336
2.7925	0.318994	0.094482	0.279122	0.381843	0.179658	0.343126	0.156025	0.231006	0.075931	0.135736	0.26675	0.185383	0.053519	0.258395	0.324591	0.368256
2.793	0.316436	0.093029	0.279207	0.378588	0.181127	0.346917	0.155472	0.233152	0.077402	0.138916	0.265133	0.186314	0.054319	0.25682	0.328112	0.372164
2.7935	0.313918	0.091603	0.279289	0.37535	0.182613	0.350712	0.154931	0.235318	0.078891	0.142148	0.263554	0.18728	0.055119	0.255239	0.331638	0.376059
2.794	0.31144	0.090204	0.279368	0.37213	0.184115	0.354511	0.1544	0.237503	0.080397	0.145433	0.262016	0.188281	0.055921	0.253653	0.335166	0.37994
2.7945	0.309003	0.088832	0.279447	0.368931	0.185635	0.358314	0.15388	0.239707	0.081922	0.148771	0.260518	0.189317	0.056724	0.252061	0.338696	0.383805
2.795	0.306608	0.087488	0.279526	0.365755	0.187172	0.36212	0.15337	0.24193	0.083464	0.152161	0.25906	0.190389	0.057527	0.250465	0.342228	0.387655
2.7955	0.304257	0.08617	0.279606	0.362604	0.188726	0.365928	0.152871	0.24417	0.085025	0.155602	0.257643	0.191497	0.05833	0.248866	0.34576	0.391488
2.796	0.30195	0.08488	0.279687	0.35948	0.190297	0.369739	0.152381	0.246428	0.086603	0.159096	0.256268	0.192642	0.059133	0.247264	0.349291	0.395303
2.7965	0.299688	0.083618	0.279773	0.356385	0.191886	0.37355	0.1519	0.248703	0.088199	0.162641	0.254935	0.193824	0.059935	0.245659	0.35282	0.399099
2.797	0.297472	0.082383	0.279864	0.353322	0.193491	0.377363	0.151429	0.250993	0.089813	0.166237	0.253643	0.195043	0.060736	0.244053	0.356348	0.402878
2.7975	0.295303	0.081175	0.279961	0.350291	0.195114	0.381174	0.150967	0.253299	0.091444	0.169884	0.252394	0.196299	0.061536	0.242447	0.359871	0.406637
2.798	0.293182	0.079995	0.280067	0.347297	0.196753	0.384985	0.150514	0.255619	0.093094	0.173581	0.251187	0.197594	0.062333	0.240841	0.363391	0.410377
2.7985	0.29111	0.078842	0.280183	0.344339	0.198409	0.388792	0.15007	0.257952	0.094761	0.177328	0.250023	0.198925	0.063128	0.239235	0.366904	0.414099
2.799	0.289087	0.077717	0.280311	0.341421	0.200082	0.392596	0.149635	0.260297	0.096446	0.181124	0.248901	0.200295	0.06392	0.237631	0.370411	0.417801
2.7995	0.287114	0.07662	0.280452	0.338543	0.201772	0.396395	0.149209	0.262654	0.098149	0.184969	0.247821	0.201703	0.064709	0.23603	0.37391	0.421484
2.8	0.285192	0.075551	0.280609	0.335709	0.203479	0.400188	0.148793	0.265021	0.099869	0.188863	0.246782	0.203149	0.065495	0.234432	0.3774	0.425147
2.8005	0.283322	0.074509	0.280781	0.332919	0.205202	0.403972	0.148385	0.267396	0.101607	0.192804	0.245786	0.204634	0.066276	0.232837	0.38088	0.428791
2.801	0.281504	0.073495	0.280972	0.330175	0.206942	0.407747	0.147987	0.26978	0.103361	0.196792	0.244832	0.206157	0.067053	0.231247	0.384349	0.432414
2.8015	0.279739	0.072508	0.281183	0.327479	0.208698	0.411512	0.147598	0.27217	0.105133	0.200826	0.243919	0.207718	0.067825	0.229663	0.387805	0.436017
2.802	0.278026	0.071549	0.281415	0.324832	0.21047	0.415264	0.147218	0.274566	0.106922	0.204906	0.243048	0.209318	0.068592	0.228085	0.391249	0.439599
2.8025	0.276368	0.070617	0.281669	0.322236	0.212259	0.419002	0.146849	0.276967	0.108729	0.20903	0.242218	0.210957	0.069354	0.226513	0.394679	0.443159
2.803	0.274763	0.069712	0.281948	0.319691	0.214063	0.422726	0.146488	0.279372	0.110552	0.213198	0.241429	0.212635	0.07011	0.22495	0.398095	0.446697
2.8035	0.273211	0.068835	0.282252	0.317199	0.215883	0.426433	0.146138	0.281781	0.112392	0.217409	0.240681	0.214351	0.070861	0.223394	0.401497	0.450213
2.804	0.271714	0.067984	0.282583	0.314761	0.217718	0.430124	0.145797	0.284194	0.114249	0.221662	0.239975	0.216106	0.071606	0.221848	0.404882	0.453704
2.8045	0.270271	0.067161	0.282943	0.312379	0.21957	0.433796	0.145465	0.286611	0.116123	0.225955	0.239308	0.2179	0.072344	0.220312	0.408252	0.457172
2.805	0.268882	0.066364	0.283333	0.310053	0.221436	0.437449	0.145144	0.289029	0.118014	0.230289	0.238683	0.219733	0.073076	0.218786	0.411605	0.460615
2.8055	0.267547	0.065595	0.283755	0.307784	0.223318	0.441082	0.144831	0.291451	0.119921	0.234661	0.238097	0.221605	0.073802	0.217271	0.41494	0.464033
2.806	0.266266	0.064851	0.284209	0.305574	0.225215	0.444692	0.144529	0.293873	0.121845	0.23907	0.237551	0.223515	0.074521	0.215768	0.418257	0.467427
2.8065	0.265038	0.064134	0.284698	0.303423	0.227127	0.44828	0.144236	0.296298	0.123785	0.243515	0.237046	0.225463	0.075232	0.214277	0.421555	0.470795
2.807	0.263864	0.063443	0.285223	0.301331	0.229053	0.451843	0.143953	0.298723	0.125742	0.247996	0.23658	0.22745	0.075937	0.212799	0.424833	0.474137
2.8075	0.262743	0.062778	0.285784	0.299301	0.230993	0.45538	0.14368	0.30115	0.127714	0.252509	0.236154	0.229474	0.076634	0.211334	0.42809	0.477454
2.808	0.261676	0.062139	0.286384	0.297332	0.232946	0.45889	0.143416	0.303577	0.129702	0.257055	0.235768	0.231537	0.077323	0.209883	0.431325	0.480745
2.8085	0.260661	0.061525	0.287024	0.295426	0.234913	0.462372	0.143163	0.306005	0.131706	0.261631	0.235421	0.233636	0.078005	0.208446	0.434538	0.484009
2.809	0.259699	0.060936	0.287704	0.293582	0.236893	0.465823	0.142919	0.308434	0.133725	0.266237	0.235113	0.235773	0.078679	0.207024	0.437728	0.487247
2.8095	0.258791	0.060373	0.288427	0.291802	0.238884	0.469244	0.142686	0.310863	0.13576	0.27087	0.234844	0.237946	0.079345	0.205616	0.440894	0.490458
2.81	0.257934	0.059834	0.289193	0.290085	0.240888	0.472633	0.142463	0.313293	0.137809	0.275529	0.234613	0.240155	0.080004	0.204223	0.444036	0.493641
2.8105	0.25713	0.05932	0.290003	0.288433	0.242903	0.47599	0.142249	0.315724	0.139873	0.280213	0.234421	0.242401	0.080655	0.202845	0.447154	0.496795
2.811	0.256379	0.05883	0.290858	0.286845	0.244929	0.479313	0.142047	0.318156	0.141951	0.284919	0.234266	0.244681	0.081299	0.201482	0.450246	0.499919
2.8115	0.255679	0.058365	0.291759	0.285323	0.246965	0.482603	0.141854	0.320588	0.144044	0.289647	0.234149	0.246997	0.081935	0.200134	0.453314	0.503013
2.812	0.255032	0.057924	0.292706	0.283865	0.249012	0.485859	0.141671	0.323021	0.14615	0.294395	0.234068	0.249347	0.082565	0.198802	0.456355	0.506075
2.8125	0.254437	0.057506	0.293701	0.282472	0.251069	0.48908	0.141499	0.325456	0.148269	0.29916	0.234024	0.251731	0.083188	0.197484	0.459371	0.509103
2.813	0.253893	0.057112	0.294744	0.281144	0.253134	0.492267	0.141337	0.327891	0.150402	0.303941	0.234016	0.254148	0.083804	0.196182	0.46236	0.512097
2.8135	0.253402	0.056742	0.295835	0.279882	0.255209	0.495418	0.141185	0.330327	0.152548	0.308737	0.234042	0.256599	0.084413	0.194895	0.465322	0.515055
2.814	0.252962	0.056394	0.296975	0.278685	0.257292	0.498535	0.141044	0.332763	0.154705	0.313544	0.234103	0.259082	0.085017	0.193622	0.468257	0.517975
2.8145	0.252573	0.05607	0.298165	0.277553	0.259384	0.501617	0.140912	0.335201	0.156875	0.318361	0.234198	0.261596	0.085615	0.192364	0.471163	0.520856
2.815	0.252235	0.055768	0.299405	0.276487	0.261484	0.504664	0.14079	0.337638	0.159057	0.323187	0.234327	0.264142	0.086207	0.191122	0.474042	0.523697
2.8155	0.251948	0.055488	0.300695	0.275485	0.263593	0.507679	0.140678	0.340076	0.161249	0.328019	0.23449	0.266719	0.086795	0.189894	0.476891	0.526496
2.816	0.251712	0.05523	0.302035	0.274548	0.26571	0.51066	0.140576	0.342514	0.163452	0.332856	0.234685	0.269325	0.087378	0.188681	0.479713	0.529252
2.8165	0.251526	0.054994	0.303427	0.273676	0.267837	0.513609	0.140483	0.344951	0.165665	0.337695	0.234913	0.271961	0.087958	0.187483	0.482506	0.531964
2.817	0.251391	0.05478	0.304869	0.272868	0.269973	0.516525	0.1404	0.347387	0.167888	0.342534	0.235173	0.274627	0.088533	0.186301	0.48527	0.534633
2.8175	0.251305	0.054586	0.306363	0.272124	0.272118	0.51941	0.140325	0.349822	0.170119	0.347372	0.235465	0.27732	0.089106	0.185133	0.488007	0.537256
2.818	0.25127	0.054414	0.307908	0.271443	0.274274	0.522264	0.140259	0.352253	0.172358	0.352206	0.235789	0.280041	0.089677	0.18398	0.490716	0.539835
2.8185	0.251284	0.054262	0.309505	0.270825	0.27644	0.525086	0.140202	0.354682	0.174605	0.357034	0.236144	0.28279	0.090245	0.182842	0.493397	0.542368
2.819	0.251348	0.054129	0.311154	0.27027	0.278617	0.527878	0.140152	0.357106	0.176858	0.361854	0.23653	0.285565	0.090811	0.181718	0.496051	0.544857
2.8195	0.251463	0.054017	0.312855	0.269777	0.280805	0.53064	0.140111	0.359526	0.179118	0.366664	0.236947	0.288366	0.091376	0.18061	0.498676	0.5473
2.82	0.251627	0.053924	0.314608	0.269345	0.283003	0.533373	0.140077	0.36194	0.181382	0.371463	0.237395	0.291192	0.091939	0.179515	0.501273	0.549698
2.8205	0.25184	0.053849	0.316413	0.268974	0.285213	0.536077	0.140049	0.364348	0.183652	0.376247	0.237873	0.294043	0.092503	0.178436	0.503842	0.552051
2.821	0.252104	0.053794	0.318272	0.268663	0.287434	0.538754	0.140029	0.366749	0.185926	0.381015	0.238381	0.296918	0.093066	0.177371	0.506382	0.554357
2.8215	0.252416	0.053757	0.320184	0.268412	0.289666	0.541404	0.140014	0.369142	0.188203	0.385763	0.238919	0.299817	0.093629	0.17632	0.508892	0.556617
2.822	0.252778	0.053737	0.322149	0.26822	0.291909	0.544028	0.140006	0.371528	0.190484	0.390491	0.239487	0.302737	0.094193	0.175283	0.511373	0.558831
2.8225	0.253188	0.053736	0.324167	0.268087	0.294163	0.546626	0.140002	0.373904	0.192767	0.395194	0.240083	0.30568	0.094758	0.174259	0.513823	0.560996
2.823	0.253646	0.053751	0.32624	0.268011	0.296428	0.5492	0.140004	0.376272	0.195052	0.399871	0.240709	0.308644	0.095324	0.17325	0.516242	0.563115
2.8235	0.254153	0.053783	0.328367	0.267993	0.298703	0.55175	0.14001	0.378631	0.19734	0.404518	0.241363	0.311628	0.095892	0.172253	0.51863	0.565185
2.824	0.254706	0.053832	0.330548	0.268032	0.300988	0.554276	0.14002	0.380979	0.199628	0.409133	0.242044	0.314632	0.096462	0.171269	0.520986	0.567208
2.8245	0.255307	0.053897	0.332783	0.268126	0.303282	0.556779	0.140033	0.383316	0.201918	0.413713	0.242753	0.317656	0.097034	0.170298	0.523311	0.569182
2.825	0.255953	0.053977	0.335073	0.268276	0.305586	0.559259	0.14005	0.385642	0.204207	0.418255	0.243489	0.320698	0.097608	0.169338	0.525603	0.571109
2.8255	0.256646	0.054073	0.337417	0.26848	0.307898	0.561716	0.140069	0.387955	0.206496	0.422755	0.244251	0.32376	0.098186	0.16839	0.527862	0.572988
2.826	0.257383	0.054184	0.339815	0.268738	0.310218	0.564152	0.140091	0.390256	0.208784	0.427211	0.245038	0.326839	0.098766	0.167453	0.530089	0.57482
2.8265	0.258163	0.054309	0.342267	0.269049	0.312547	0.566565	0.140114	0.392544	0.211071	0.431621	0.24585	0.329935	0.09935	0.166527	0.532283	0.576604
2.827	0.258988	0.054448	0.344773	0.269411	0.314883	0.568956	0.140138	0.394817	0.213355	0.435981	0.246685	0.333049	0.099937	0.165612	0.534444	0.57834
2.8275	0.259854	0.054601	0.347332	0.269825	0.317228	0.571326	0.140163	0.397075	0.215637	0.440289	0.247544	0.336179	0.100528	0.164707	0.53657	0.58003
2.828	0.260761	0.054767	0.349944	0.270288	0.31958	0.573674	0.140188	0.399317	0.217915	0.444542	0.248425	0.339326	0.101123	0.163811	0.538662	0.581671
2.8285	0.261709	0.054946	0.352608	0.270801	0.32194	0.576002	0.140212	0.401543	0.220189	0.448738	0.249328	0.342488	0.101723	0.162925	0.540719	0.583264
2.829	0.262696	0.055138	0.355325	0.271361	0.324307	0.578308	0.140235	0.40375	0.222459	0.452875	0.250252	0.345665	0.102327	0.162048	0.54274	0.58481
2.8295	0.263721	0.055342	0.358094	0.271969	0.326683	0.580593	0.140255	0.405939	0.224724	0.456951	0.251195	0.348858	0.102936	0.161179	0.544726	0.586306
2.83	0.264782	0.055558	0.360914	0.272623	0.329066	0.582856	0.140274	0.408107	0.226984	0.460964	0.252158	0.352066	0.10355	0.160319	0.546674	0.587754
2.8305	0.265879	0.055785	0.363785	0.273322	0.331458	0.585098	0.140289	0.410254	0.229239	0.464911	0.253139	0.355287	0.10417	0.159466	0.548585	0.589153
2.831	0.26701	0.056023	0.366707	0.274065	0.333857	0.587317	0.140301	0.412379	0.231487	0.468792	0.254138	0.358523	0.104794	0.15862	0.550458	0.590502
2.8315	0.268173	0.056271	0.36968	0.274852	0.336263	0.589513	0.140308	0.41448	0.233729	0.472604	0.255155	0.361771	0.105424	0.157781	0.55229	0.591801
2.832	0.269368	0.05653	0.372702	0.27568	0.338676	0.591685	0.14031	0.416556	0.235965	0.476345	0.256189	0.365033	0.10606	0.156948	0.554082	0.593049
2.8325	0.270593	0.0568	0.375775	0.27655	0.341097	0.593831	0.140307	0.418605	0.238193	0.480014	0.257239	0.368306	0.106702	0.15612	0.555832	0.594247
2.833	0.271847	0.057078	0.378896	0.27746	0.343524	0.595953	0.140298	0.420625	0.240414	0.483608	0.258304	0.371591	0.10735	0.155298	0.557538	0.595395
2.8335	0.273127	0.057367	0.382066	0.27841	0.345958	0.598047	0.140282	0.422616	0.242626	0.487125	0.259385	0.374886	0.108004	0.154481	0.559201	0.596491
2.834	0.274433	0.057665	0.385285	0.279398	0.348398	0.600113	0.14026	0.424575	0.244831	0.490563	0.26048	0.37819	0.108665	0.153669	0.560818	0.597536
2.8345	0.275763	0.057971	0.388551	0.280424	0.350844	0.602151	0.140229	0.4265	0.247027	0.49392	0.261589	0.381504	0.109333	0.15286	0.562389	0.59853
2.835	0.277114	0.058287	0.391866	0.281488	0.353297	0.60416	0.14019	0.428391	0.249214	0.497193	0.262712	0.384825	0.110008	0.152056	0.563913	0.599472
2.8355	0.278486	0.058612	0.395228	0.282588	0.355756	0.606138	0.140142	0.430244	0.251392	0.500381	0.263847	0.388154	0.11069	0.151255	0.565389	0.600362
2.836	0.279877	0.058945	0.398637	0.283724	0.358221	0.608084	0.140084	0.432059	0.25356	0.503483	0.264994	0.391488	0.11138	0.150457	0.566815	0.601199
2.8365	0.281284	0.059287	0.402093	0.284896	0.360692	0.609998	0.140016	0.433834	0.255718	0.506496	0.266153	0.394828	0.112078	0.149661	0.568191	0.601985
2.837	0.282707	0.059636	0.405595	0.286102	0.363169	0.611878	0.139937	0.435567	0.257866	0.509419	0.267323	0.398172	0.112783	0.148868	0.569514	0.602718
2.8375	0.284144	0.059994	0.409144	0.287344	0.365651	0.613724	0.139845	0.437257	0.260003	0.51225	0.268503	0.40152	0.113497	0.148076	0.570784	0.603402
2.838	0.285592	0.06036	0.412739	0.28862	0.36814	0.615533	0.139741	0.438902	0.262128	0.51499	0.269693	0.40487	0.11422	0.147286	0.572001	0.604035
2.8385	0.287051	0.060733	0.416379	0.289931	0.370633	0.617305	0.139623	0.440503	0.264241	0.517637	0.27089	0.408221	0.114951	0.146497	0.573163	0.604622
2.839	0.28852	0.061113	0.420064	0.291277	0.373132	0.619038	0.139491	0.442057	0.266342	0.520189	0.272096	0.411572	0.115692	0.145707	0.574269	0.605162
2.8395	0.289995	0.061501	0.423792	0.292656	0.375637	0.620731	0.139344	0.443565	0.26843	0.522647	0.273308	0.414922	0.116443	0.144919	0.575319	0.605658
2.84	0.291477	0.061896	0.427564	0.294071	0.378146	0.622384	0.139183	0.445026	0.270505	0.525011	0.274527	0.418271	0.117204	0.14413	0.576312	0.606112
2.8405	0.292963	0.062298	0.431379	0.295519	0.380661	0.623994	0.139006	0.44644	0.272567	0.52728	0.275751	0.421616	0.117976	0.143341	0.577245	0.606525
2.841	0.294452	0.062706	0.435235	0.297002	0.38318	0.625562	0.138812	0.447807	0.274615	0.529455	0.276978	0.424956	0.118759	0.142553	0.578119	0.6069
2.8415	0.295943	0.063121	0.439132	0.298518	0.385704	0.627086	0.138603	0.449126	0.276648	0.531536	0.278209	0.428291	0.119554	0.141765	0.578932	0.607237
2.842	0.297434	0.063543	0.443069	0.300069	0.388232	0.628565	0.138377	0.450397	0.278667	0.533522	0.279443	0.43162	0.120361	0.140976	0.579683	0.607539
2.8425	0.298925	0.063971	0.447046	0.301652	0.390764	0.629999	0.138135	0.45162	0.280671	0.535415	0.280677	0.434941	0.121181	0.140189	0.580371	0.607807
2.843	0.300412	0.064406	0.451061	0.303269	0.393299	0.631387	0.137876	0.452795	0.282658	0.537214	0.281911	0.438252	0.122014	0.139401	0.580996	0.608042
2.8435	0.301896	0.064847	0.455114	0.304918	0.395837	0.632728	0.1376	0.453924	0.28463	0.538919	0.283145	0.441554	0.12286	0.138614	0.581555	0.608247
2.844	0.303374	0.065294	0.459204	0.306599	0.398377	0.63402	0.137306	0.455006	0.286584	0.54053	0.284375	0.444844	0.123719	0.137828	0.582049	0.608421
2.8445	0.304844	0.065748	0.46333	0.308313	0.40092	0.635263	0.136995	0.456044	0.288521	0.542047	0.285602	0.448121	0.124593	0.137042	0.582477	0.608568
2.845	0.306305	0.066208	0.467492	0.310059	0.403464	0.636456	0.136666	0.457039	0.290439	0.543469	0.286824	0.451384	0.125481	0.136256	0.582839	0.608687
2.8455	0.307755	0.066674	0.471688	0.311836	0.406009	0.637598	0.13632	0.457995	0.292338	0.544796	0.288039	0.454632	0.126384	0.135472	0.583136	0.608781
2.846	0.309193	0.067147	0.475918	0.313646	0.408556	0.63869	0.135956	0.458912	0.294217	0.546027	0.289246	0.457863	0.127303	0.134689	0.583367	0.608849
2.8465	0.310615	0.067625	0.480181	0.315487	0.411103	0.639732	0.135574	0.459793	0.296075	0.547162	0.290443	0.461076	0.128237	0.133908	0.583532	0.608893
2.847	0.312021	0.068109	0.484477	0.317361	0.413652	0.640723	0.135174	0.460641	0.297912	0.548201	0.291629	0.464269	0.129186	0.133129	0.583634	0.608914
2.8475	0.313407	0.068598	0.488804	0.319266	0.416201	0.641664	0.134758	0.461458	0.299726	0.549143	0.292803	0.467442	0.130152	0.132352	0.58367	0.608913
2.848	0.314773	0.069093	0.493161	0.321203	0.41875	0.642555	0.134324	0.462246	0.301517	0.549989	0.293961	0.470592	0.131135	0.131578	0.583642	0.608891
2.8485	0.316115	0.069594	0.497548	0.323173	0.421299	0.643396	0.133873	0.463008	0.303285	0.550738	0.295104	0.47372	0.132135	0.130807	0.58355	0.608848
2.849	0.317432	0.070099	0.501963	0.325175	0.423848	0.644187	0.133406	0.463745	0.30503	0.551392	0.296228	0.476823	0.133151	0.13004	0.583394	0.608786
2.8495	0.318721	0.07061	0.506407	0.32721	0.426397	0.644928	0.132924	0.464462	0.306751	0.55195	0.297332	0.479901	0.134186	0.129275	0.583174	0.608704
2.85	0.319979	0.071125	0.510877	0.329277	0.428945	0.645619	0.132426	0.465159	0.308449	0.552413	0.298414	0.482953	0.135238	0.128515	0.58289	0.608604
2.8505	0.321204	0.071645	0.515372	0.331377	0.431492	0.646262	0.131913	0.465839	0.310123	0.552782	0.299472	0.485978	0.136308	0.127759	0.582544	0.608486
2.851	0.322394	0.07217	0.519893	0.33351	0.434038	0.646856	0.131387	0.466504	0.311772	0.553059	0.300504	0.488974	0.137396	0.127007	0.582137	0.608352
2.8515	0.323546	0.072699	0.524437	0.335676	0.436585	0.647401	0.130846	0.467158	0.313397	0.553244	0.301508	0.491942	0.138503	0.12626	0.581668	0.608201
2.852	0.324659	0.073232	0.529003	0.337876	0.439131	0.6479	0.130293	0.467802	0.314998	0.553338	0.302482	0.494882	0.139628	0.125518	0.581141	0.608034
2.8525	0.32573	0.07377	0.533591	0.340108	0.441677	0.648353	0.129727	0.468438	0.316574	0.553343	0.303425	0.497792	0.140772	0.124781	0.580556	0.607853
2.853	0.326757	0.074312	0.5382	0.342374	0.444224	0.648761	0.129149	0.46907	0.318124	0.55326	0.304335	0.500673	0.141934	0.124051	0.579916	0.607658
2.8535	0.32774	0.074859	0.542828	0.344672	0.446772	0.649125	0.128559	0.469699	0.31965	0.55309	0.305211	0.503524	0.143115	0.123326	0.579222	0.60745
2.854	0.328678	0.07541	0.547477	0.347003	0.44932	0.649446	0.127958	0.470327	0.32115	0.552834	0.306052	0.506345	0.144315	0.122609	0.578476	0.607231
2.8545	0.32957	0.075967	0.552144	0.349366	0.451869	0.649726	0.127347	0.470958	0.322624	0.552494	0.306859	0.509137	0.145533	0.121898	0.577679	0.606999
2.855	0.330415	0.076528	0.556831	0.351762	0.454419	0.649966	0.126725	0.471595	0.324072	0.55207	0.307631	0.5119	0.146771	0.121195	0.576834	0.606757
2.8555	0.331214	0.077095	0.561535	0.35419	0.456969	0.650165	0.126095	0.47224	0.325494	0.551564	0.308369	0.514634	0.148026	0.120501	0.575941	0.606505
2.856	0.331967	0.077666	0.566257	0.35665	0.45952	0.650326	0.125455	0.472896	0.32689	0.550976	0.309071	0.51734	0.149301	0.119815	0.575002	0.606243
2.8565	0.332672	0.078244	0.570997	0.359142	0.462071	0.650449	0.124808	0.473567	0.328258	0.550308	0.30974	0.520019	0.150593	0.119139	0.574017	0.605972
2.857	0.333332	0.078828	0.575754	0.361665	0.464622	0.650535	0.124153	0.474256	0.3296	0.549559	0.310374	0.522671	0.151904	0.118472	0.572989	0.605693
2.8575	0.333945	0.079418	0.580527	0.36422	0.467172	0.650585	0.123491	0.474965	0.330914	0.548731	0.310975	0.525296	0.153233	0.117816	0.571918	0.605405
2.858	0.334512	0.080014	0.585315	0.366808	0.469721	0.6506	0.122824	0.475698	0.3322	0.547824	0.311544	0.527895	0.154579	0.117171	0.570805	0.605108
2.8585	0.335032	0.080618	0.590119	0.369427	0.47227	0.650579	0.122152	0.476457	0.333459	0.546838	0.312082	0.530466	0.155943	0.116538	0.569651	0.604804
2.859	0.335508	0.08123	0.594937	0.37208	0.474817	0.650524	0.121475	0.477245	0.334689	0.545775	0.312591	0.533012	0.157324	0.115916	0.568455	0.604491
2.8595	0.335939	0.08185	0.599767	0.374767	0.477363	0.650434	0.120794	0.478064	0.335891	0.544635	0.313074	0.535531	0.158721	0.115307	0.56722	0.604169
2.86	0.336327	0.082479	0.604609	0.377487	0.479907	0.65031	0.120111	0.478916	0.337065	0.543418	0.313532	0.538024	0.160135	0.114711	0.565946	0.603839
2.8605	0.336673	0.083118	0.609462	0.380241	0.482448	0.650151	0.119425	0.479805	0.338209	0.542127	0.313968	0.540491	0.161564	0.114128	0.564634	0.603499
2.861	0.336978	0.083768	0.614324	0.38303	0.484988	0.649958	0.118738	0.480732	0.339324	0.540763	0.314383	0.542933	0.163009	0.113559	0.563285	0.603149
2.8615	0.337244	0.084428	0.619192	0.385854	0.487524	0.64973	0.11805	0.481699	0.34041	0.539327	0.31478	0.54535	0.164468	0.113004	0.5619	0.602789
2.862	0.337474	0.085099	0.624067	0.388713	0.490058	0.649468	0.117362	0.482709	0.341465	0.537821	0.315159	0.547744	0.165941	0.112463	0.56048	0.602416
2.8625	0.337667	0.085783	0.628947	0.391609	0.492587	0.649171	0.116673	0.483763	0.342489	0.536248	0.315524	0.550115	0.167428	0.111936	0.559027	0.602032
2.863	0.337827	0.086479	0.633829	0.39454	0.495112	0.648839	0.115986	0.484863	0.343482	0.53461	0.315876	0.552463	0.168928	0.111425	0.557541	0.601635
2.8635	0.337954	0.087188	0.638713	0.397508	0.497631	0.648473	0.1153	0.48601	0.344443	0.532908	0.316217	0.554791	0.17044	0.110928	0.556023	0.601224
2.864	0.33805	0.087912	0.643596	0.400513	0.500143	0.648072	0.114615	0.487206	0.345372	0.531146	0.316548	0.557098	0.171963	0.110447	0.554474	0.600798
2.8645	0.338117	0.088649	0.648478	0.403555	0.502649	0.647636	0.113933	0.488453	0.346268	0.529324	0.316871	0.559386	0.173497	0.109981	0.552895	0.600358
2.865	0.338157	0.089401	0.653357	0.406635	0.505145	0.647164	0.113254	0.489751	0.34713	0.527446	0.317187	0.561654	0.175041	0.109531	0.551286	0.599902
2.8655	0.338171	0.090169	0.65823	0.409753	0.507631	0.646656	0.112577	0.491101	0.347956	0.525512	0.317498	0.563904	0.176595	0.109097	0.549648	0.599429
2.866	0.33816	0.090952	0.663097	0.412908	0.510106	0.646111	0.111905	0.492505	0.348747	0.523525	0.317805	0.566137	0.178156	0.108679	0.547981	0.59894
2.8665	0.338126	0.091752	0.667955	0.416102	0.512568	0.645528	0.111236	0.493963	0.349501	0.521487	0.31811	0.568352	0.179724	0.108277	0.546287	0.598433
2.867	0.338071	0.092568	0.672803	0.419333	0.515014	0.644906	0.110572	0.495477	0.350217	0.519398	0.318413	0.570552	0.181299	0.107891	0.544564	0.597907
2.8675	0.337996	0.093401	0.67764	0.422602	0.517444	0.644245	0.109913	0.497047	0.350894	0.51726	0.318716	0.572736	0.182879	0.107521	0.542814	0.597361
2.868	0.337903	0.094252	0.682463	0.425909	0.519854	0.643544	0.109259	0.498674	0.351531	0.515075	0.31902	0.574905	0.184464	0.107168	0.541038	0.596793
2.8685	0.337793	0.095121	0.687271	0.429253	0.522244	0.642803	0.108611	0.500358	0.352128	0.512843	0.319326	0.57706	0.186052	0.106831	0.539235	0.596204
2.869	0.337668	0.096009	0.692062	0.432634	0.524609	0.642022	0.107969	0.5021	0.352683	0.510568	0.319635	0.5792	0.187642	0.106511	0.537405	0.595591
2.8695	0.337529	0.096914	0.696835	0.436051	0.526949	0.641201	0.107333	0.5039	0.353195	0.508249	0.319948	0.581327	0.189233	0.106206	0.535549	0.594954
2.87	0.337378	0.097839	0.70159	0.439504	0.52926	0.64034	0.106705	0.505759	0.353664	0.505889	0.320265	0.58344	0.190825	0.105918	0.533666	0.594292
2.8705	0.337215	0.098783	0.706324	0.442992	0.53154	0.63944	0.106083	0.507677	0.354089	0.503488	0.320588	0.58554	0.192415	0.105646	0.531758	0.593603
2.871	0.337041	0.099747	0.711037	0.446514	0.533785	0.638501	0.105469	0.509653	0.354469	0.501048	0.320916	0.587627	0.194004	0.10539	0.529824	0.592888
2.8715	0.336859	0.10073	0.715729	0.450069	0.535994	0.637522	0.104863	0.511689	0.354802	0.49857	0.321252	0.589701	0.19559	0.10515	0.527865	0.592144
2.872	0.336668	0.101733	0.720399	0.453657	0.538163	0.636505	0.104265	0.513783	0.355088	0.496056	0.321595	0.591763	0.197172	0.104925	0.525881	0.591371
2.8725	0.336471	0.102757	0.725047	0.457275	0.54029	0.635448	0.103677	0.515935	0.355326	0.493506	0.321946	0.593814	0.198748	0.104716	0.523872	0.590567
2.873	0.336267	0.1038	0.729673	0.460924	0.542371	0.634352	0.103097	0.518145	0.355515	0.490922	0.322305	0.595853	0.200319	0.104523	0.521839	0.589731
2.8735	0.336058	0.104865	0.734275	0.464601	0.544403	0.633217	0.102526	0.520413	0.355653	0.488303	0.322673	0.59788	0.201882	0.104346	0.519782	0.588862
2.874	0.335845	0.10595	0.738854	0.468304	0.546384	0.632044	0.101965	0.522739	0.355741	0.485652	0.323049	0.599895	0.203437	0.104183	0.517699	0.58796
2.8745	0.335629	0.107055	0.743409	0.472033	0.54831	0.630833	0.101415	0.525121	0.355777	0.482967	0.323435	0.601898	0.204981	0.104037	0.515592	0.587021
2.875	0.33541	0.108182	0.747939	0.475785	0.55018	0.629584	0.100874	0.527559	0.355762	0.480249	0.323831	0.603888	0.206514	0.103906	0.51346	0.586047
2.8755	0.335189	0.10933	0.752444	0.479559	0.551991	0.628299	0.100344	0.530053	0.355693	0.4775	0.324235	0.605865	0.208035	0.10379	0.511302	0.585036
2.876	0.334967	0.110499	0.756922	0.483353	0.553742	0.626978	0.099825	0.532602	0.355571	0.474718	0.32465	0.607828	0.209541	0.10369	0.509119	0.583986
2.8765	0.334744	0.11169	0.761375	0.487164	0.555431	0.625622	0.099317	0.535205	0.355394	0.471903	0.325073	0.609778	0.211032	0.103606	0.506909	0.582899
2.877	0.334521	0.112901	0.765802	0.490992	0.557057	0.624234	0.09882	0.537861	0.355163	0.469057	0.325506	0.611713	0.212505	0.103537	0.504673	0.581772
2.8775	0.334298	0.114134	0.770203	0.494833	0.55862	0.622813	0.098334	0.54057	0.354876	0.466179	0.325948	0.613634	0.21396	0.103484	0.50241	0.580606
2.878	0.334077	0.115389	0.77458	0.498688	0.560119	0.62136	0.09786	0.543329	0.354532	0.463268	0.326399	0.61554	0.215395	0.103446	0.50012	0.5794
2.8785	0.333857	0.116665	0.778933	0.502552	0.561554	0.619878	0.097397	0.546137	0.354132	0.460326	0.326857	0.617432	0.216809	0.103424	0.497803	0.578155
2.879	0.333638	0.117962	0.783265	0.506426	0.562924	0.618367	0.096947	0.548994	0.353675	0.457351	0.327324	0.619308	0.2182	0.103417	0.49546	0.576869
2.8795	0.333422	0.119281	0.787575	0.510306	0.564229	0.616828	0.096507	0.551897	0.353161	0.454343	0.327798	0.62117	0.219567	0.103426	0.49309	0.575544
2.88	0.333208	0.120621	0.791865	0.51419	0.565469	0.615264	0.09608	0.554845	0.352589	0.451303	0.328277	0.623017	0.22091	0.103451	0.490695	0.574178
2.8805	0.332996	0.121982	0.796135	0.518076	0.566643	0.613675	0.095665	0.557835	0.351959	0.44823	0.328763	0.624849	0.222227	0.103491	0.488274	0.572772
2.881	0.332787	0.123365	0.800388	0.521964	0.567751	0.612063	0.095262	0.560867	0.351272	0.445125	0.329253	0.626664	0.223517	0.103546	0.485827	0.571325
2.8815	0.33258	0.124769	0.804622	0.525851	0.568793	0.610429	0.094871	0.563939	0.350527	0.441987	0.329748	0.628463	0.224779	0.103618	0.483356	0.569836
2.882	0.332375	0.126195	0.808839	0.529737	0.569768	0.608775	0.094492	0.567048	0.349725	0.438816	0.330244	0.630245	0.226013	0.103704	0.48086	0.568306
2.8825	0.332171	0.127642	0.813038	0.53362	0.570677	0.607101	0.094125	0.570192	0.348866	0.435612	0.330743	0.632009	0.227218	0.103807	0.478339	0.566732
2.883	0.331969	0.129109	0.817221	0.537499	0.57152	0.605411	0.093771	0.57337	0.347949	0.432374	0.331242	0.633754	0.228392	0.103924	0.475794	0.565115
2.8835	0.331768	0.130598	0.821386	0.541373	0.572299	0.603704	0.093429	0.576579	0.346976	0.429101	0.33174	0.635478	0.229535	0.104057	0.473225	0.563452
2.884	0.331568	0.132108	0.825534	0.545242	0.573013	0.601982	0.0931	0.579819	0.345946	0.425794	0.332236	0.637182	0.230646	0.104205	0.470631	0.561744
2.8845	0.331367	0.133638	0.829665	0.549104	0.573664	0.600247	0.092783	0.583086	0.344858	0.422451	0.332728	0.638864	0.231724	0.104368	0.468014	0.559987
2.885	0.331166	0.135189	0.833779	0.55296	0.574254	0.598499	0.092479	0.586378	0.343715	0.419072	0.333215	0.640523	0.232768	0.104546	0.465374	0.558183
2.8855	0.330963	0.136761	0.837877	0.556808	0.574784	0.59674	0.092187	0.589695	0.342515	0.415657	0.333695	0.642158	0.233777	0.104739	0.462713	0.556329
2.886	0.330758	0.138352	0.84196	0.560648	0.575256	0.594969	0.091908	0.593034	0.341259	0.412206	0.334167	0.643769	0.23475	0.104947	0.46003	0.554426
2.8865	0.33055	0.139962	0.846028	0.564479	0.575672	0.593187	0.091643	0.596394	0.339946	0.408717	0.334628	0.645355	0.235686	0.105169	0.457327	0.552473
2.887	0.330338	0.141592	0.850081	0.5683	0.576034	0.591396	0.091389	0.599773	0.338578	0.405193	0.335077	0.646917	0.236585	0.105405	0.454605	0.55047
2.8875	0.33012	0.143242	0.85412	0.57211	0.576344	0.589595	0.091149	0.60317	0.337153	0.401632	0.335513	0.648454	0.237446	0.105655	0.451865	0.548417
2.888	0.329897	0.144909	0.858145	0.575909	0.576605	0.587783	0.090921	0.606583	0.335671	0.398035	0.335932	0.649965	0.238269	0.105919	0.449108	0.546315
2.8885	0.329666	0.146595	0.862154	0.579695	0.576817	0.585962	0.090706	0.610011	0.334133	0.394404	0.336334	0.651453	0.239053	0.106196	0.446334	0.544165
2.889	0.329428	0.148299	0.866149	0.583467	0.576983	0.584131	0.090503	0.613451	0.332539	0.390739	0.336717	0.652915	0.239798	0.106486	0.443545	0.541966
2.8895	0.329181	0.150021	0.870128	0.587225	0.577105	0.58229	0.090313	0.616904	0.330888	0.387041	0.337078	0.654352	0.240506	0.106789	0.440742	0.539719
2.89	0.328923	0.151759	0.87409	0.590966	0.577184	0.580439	0.090135	0.620366	0.32918	0.383311	0.337417	0.655763	0.241174	0.107104	0.437924	0.537424
2.8905	0.328655	0.153514	0.878034	0.59469	0.577223	0.578578	0.08997	0.623836	0.327416	0.37955	0.33773	0.657148	0.241805	0.107432	0.435094	0.535082
2.891	0.328374	0.155286	0.88196	0.598396	0.577221	0.576708	0.089816	0.627312	0.325595	0.37576	0.338015	0.658506	0.242398	0.107771	0.432252	0.532694
2.8915	0.32808	0.157072	0.885865	0.602083	0.577182	0.574829	0.089675	0.630792	0.323717	0.371941	0.338272	0.659837	0.242953	0.108122	0.429398	0.530261
2.892	0.327772	0.158874	0.889749	0.60575	0.577105	0.572942	0.089546	0.634274	0.321783	0.368093	0.338499	0.66114	0.243471	0.108485	0.426534	0.527781
2.8925	0.327447	0.160691	0.893609	0.609395	0.576993	0.571048	0.089428	0.637757	0.319795	0.364219	0.338693	0.662415	0.243952	0.108858	0.423661	0.525257
2.893	0.327105	0.162522	0.897444	0.613017	0.576845	0.569146	0.089323	0.641237	0.317751	0.360318	0.338852	0.66366	0.244396	0.109243	0.420781	0.522688
2.8935	0.326745	0.164366	0.901251	0.616616	0.576663	0.567238	0.089231	0.644713	0.315654	0.356391	0.338974	0.664875	0.244804	0.109638	0.417893	0.520074
2.894	0.326365	0.166223	0.905028	0.620191	0.576449	0.565323	0.089151	0.648183	0.313505	0.35244	0.339058	0.666059	0.245175	0.110043	0.415	0.517417
2.8945	0.325965	0.168092	0.908771	0.62374	0.576202	0.563401	0.089084	0.651644	0.311305	0.348466	0.3391	0.667211	0.245511	0.110459	0.412103	0.514716
2.895	0.325543	0.169972	0.912478	0.627263	0.575924	0.561474	0.089031	0.655093	0.309055	0.34447	0.3391	0.668329	0.245811	0.110885	0.409201	0.511973
2.8955	0.325098	0.171863	0.916147	0.630759	0.575617	0.55954	0.088991	0.65853	0.306756	0.340453	0.339055	0.669412	0.246076	0.11132	0.406297	0.509188
2.896	0.32463	0.173764	0.919772	0.634225	0.575282	0.557602	0.088966	0.661951	0.30441	0.336418	0.338963	0.670459	0.246308	0.111765	0.40339	0.506363
2.8965	0.324137	0.175674	0.923351	0.637662	0.574921	0.555658	0.088956	0.665357	0.302018	0.332365	0.338822	0.671466	0.246506	0.112219	0.400483	0.503498
2.897	0.323618	0.177592	0.92688	0.641067	0.574535	0.55371	0.088961	0.668744	0.299581	0.328297	0.338631	0.672433	0.246673	0.112682	0.397576	0.500596
2.8975	0.323073	0.179517	0.930356	0.64444	0.574127	0.55176	0.088981	0.672113	0.297101	0.324216	0.338387	0.673357	0.246808	0.113153	0.394671	0.497657
2.898	0.3225	0.181449	0.933774	0.647779	0.573697	0.549806	0.089017	0.675462	0.294579	0.320124	0.33809	0.674236	0.246913	0.113633	0.391768	0.494683
2.8985	0.3219	0.183386	0.937131	0.651081	0.573247	0.547852	0.089069	0.678791	0.292016	0.316023	0.337737	0.675067	0.246989	0.114122	0.38887	0.491676
2.899	0.32127	0.185327	0.940422	0.654347	0.572778	0.545896	0.089138	0.682097	0.289415	0.311916	0.337326	0.67585	0.247038	0.114618	0.385977	0.488637
2.8995	0.320612	0.187272	0.943644	0.657574	0.572293	0.54394	0.089223	0.685379	0.286776	0.307803	0.336856	0.676581	0.24706	0.115122	0.383091	0.485568
2.9	0.319925	0.189219	0.946792	0.66076	0.571793	0.541984	0.089325	0.688637	0.284103	0.303688	0.336326	0.677259	0.247057	0.115634	0.380213	0.482471
2.9005	0.319207	0.191168	0.949861	0.663904	0.571278	0.540028	0.089445	0.691869	0.281398	0.299573	0.335732	0.677881	0.24703	0.116153	0.377345	0.479347
2.901	0.318459	0.193116	0.952847	0.667005	0.57075	0.538073	0.089583	0.695074	0.278662	0.295458	0.335074	0.678446	0.24698	0.11668	0.374486	0.476199
2.9015	0.317681	0.195064	0.955744	0.670061	0.570211	0.536119	0.089739	0.698251	0.275899	0.291347	0.334352	0.678951	0.246909	0.117213	0.371638	0.473027
2.902	0.316871	0.19701	0.958548	0.673069	0.569661	0.534166	0.089914	0.701398	0.27311	0.287239	0.333562	0.679396	0.246817	0.117752	0.368803	0.469834
2.9025	0.31603	0.198953	0.961253	0.67603	0.569103	0.532214	0.090109	0.704516	0.270297	0.283138	0.332706	0.679779	0.246705	0.118298	0.36598	0.466621
2.903	0.315158	0.200892	0.963856	0.678939	0.568538	0.530264	0.090323	0.707603	0.267463	0.279045	0.331783	0.680099	0.246575	0.11885	0.363171	0.46339
2.9035	0.314256	0.202827	0.966352	0.681795	0.567966	0.528315	0.090557	0.710661	0.26461	0.274961	0.330792	0.680355	0.246428	0.119407	0.360376	0.460143
2.904	0.313323	0.204757	0.968735	0.684596	0.56739	0.526369	0.090813	0.713688	0.261739	0.270888	0.329734	0.680549	0.246264	0.11997	0.357595	0.456882
2.9045	0.312361	0.206681	0.971001	0.68734	0.56681	0.524423	0.09109	0.716684	0.258854	0.266827	0.32861	0.680678	0.246086	0.120537	0.35483	0.453608
2.905	0.31137	0.208598	0.973146	0.690023	0.566227	0.522479	0.091388	0.71965	0.255954	0.262779	0.327419	0.680743	0.245893	0.121109	0.35208	0.450325
2.9055	0.310353	0.210509	0.975165	0.692643	0.565643	0.520536	0.091709	0.722584	0.253043	0.258747	0.326164	0.680743	0.245688	0.121685	0.349345	0.447034
2.906	0.309309	0.212413	0.977055	0.695198	0.565059	0.518594	0.092054	0.725488	0.250122	0.254731	0.324846	0.680679	0.245472	0.122266	0.346627	0.443737
2.9065	0.308239	0.21431	0.978814	0.697684	0.564476	0.516651	0.092421	0.72836	0.247193	0.250732	0.323464	0.680549	0.245246	0.12285	0.343925	0.440435
2.907	0.307146	0.216199	0.980437	0.700099	0.563895	0.514709	0.092813	0.731201	0.244257	0.246753	0.32202	0.680354	0.245012	0.123438	0.341239	0.437132
2.9075	0.306029	0.218082	0.981924	0.70244	0.563318	0.512767	0.093228	0.734011	0.241316	0.242795	0.320517	0.680095	0.244771	0.12403	0.338569	0.433827
2.908	0.30489	0.219959	0.983273	0.704705	0.562745	0.510824	0.093669	0.736788	0.238371	0.238858	0.318954	0.67977	0.244524	0.124625	0.335916	0.430524
2.9085	0.30373	0.221828	0.984482	0.70689	0.562177	0.508882	0.094135	0.739534	0.235424	0.234945	0.317333	0.67938	0.244272	0.125224	0.33328	0.427223
2.909	0.30255	0.223691	0.98555	0.708994	0.561616	0.506938	0.094626	0.742246	0.232477	0.231057	0.315656	0.678926	0.244018	0.125825	0.33066	0.423927
2.9095	0.301351	0.225548	0.986477	0.711014	0.561064	0.504993	0.095144	0.744925	0.229531	0.227195	0.313925	0.678407	0.243761	0.12643	0.328057	0.420636
2.91	0.300135	0.227399	0.987262	0.712947	0.560521	0.503047	0.095688	0.747571	0.226587	0.22336	0.312141	0.677824	0.243504	0.127037	0.325472	0.417352
2.9105	0.298902	0.229243	0.987905	0.714791	0.559988	0.501098	0.096259	0.750182	0.223647	0.219553	0.310306	0.677176	0.243246	0.127646	0.322904	0.414076
2.911	0.297655	0.231081	0.988405	0.716545	0.559466	0.499145	0.096857	0.752758	0.220713	0.215776	0.308423	0.676464	0.242991	0.128259	0.320355	0.410811
2.9115	0.296394	0.232913	0.988764	0.718206	0.558956	0.497189	0.097484	0.755299	0.217785	0.21203	0.306495	0.675689	0.242737	0.128873	0.317825	0.407556
2.912	0.295122	0.234738	0.988983	0.719772	0.55846	0.495227	0.098139	0.757803	0.214865	0.208316	0.304523	0.67485	0.242488	0.12949	0.315314	0.404315
2.9125	0.29384	0.236558	0.989062	0.721241	0.557977	0.493259	0.098822	0.76027	0.211956	0.204634	0.30251	0.673947	0.242243	0.130108	0.312822	0.401087
2.913	0.292549	0.23837	0.989003	0.722612	0.55751	0.491285	0.099535	0.762699	0.209057	0.200987	0.300458	0.672981	0.242005	0.130729	0.31035	0.397874
2.9135	0.291252	0.240176	0.988808	0.723881	0.557059	0.489304	0.100278	0.765088	0.20617	0.197375	0.298369	0.671952	0.241774	0.131351	0.307898	0.394677
2.914	0.289949	0.241975	0.988478	0.725048	0.556625	0.487314	0.10105	0.767437	0.203297	0.193798	0.296245	0.670861	0.241551	0.131974	0.305466	0.391497
2.9145	0.288642	0.243766	0.988015	0.72611	0.556208	0.485315	0.101853	0.769744	0.200439	0.190259	0.294089	0.669708	0.241338	0.132598	0.303055	0.388335
2.915	0.287333	0.24555	0.987421	0.727066	0.55581	0.483307	0.102688	0.772009	0.197597	0.186757	0.291902	0.668494	0.241136	0.133222	0.300665	0.385191
2.9155	0.286023	0.247326	0.986695	0.727915	0.55543	0.48129	0.103554	0.774232	0.194772	0.183293	0.289687	0.66722	0.240944	0.133847	0.298296	0.382067
2.916	0.284713	0.249093	0.985841	0.728653	0.555071	0.479264	0.104452	0.776411	0.191965	0.179869	0.287445	0.665888	0.240766	0.134472	0.295948	0.378962
2.9165	0.283406	0.250852	0.984858	0.72928	0.554732	0.47723	0.105383	0.778546	0.189177	0.176484	0.285179	0.664498	0.2406	0.135097	0.293622	0.375878
2.917	0.282103	0.252601	0.983748	0.729794	0.554414	0.475189	0.106347	0.780638	0.18641	0.17314	0.282891	0.66305	0.240449	0.135721	0.291316	0.372814
2.9175	0.280804	0.254339	0.982513	0.730194	0.554118	0.473142	0.107344	0.782686	0.183664	0.169836	0.280581	0.661545	0.240313	0.136344	0.289032	0.369772
2.918	0.279513	0.256068	0.981153	0.730479	0.553845	0.471089	0.108376	0.78469	0.18094	0.166574	0.278253	0.659983	0.240193	0.136966	0.286769	0.36675
2.9185	0.27823	0.257785	0.97967	0.730649	0.553595	0.46903	0.109443	0.78665	0.178239	0.163354	0.275908	0.658365	0.24009	0.137587	0.284528	0.36375
2.919	0.276956	0.259491	0.978063	0.730702	0.553371	0.466968	0.110544	0.788564	0.175562	0.160177	0.273548	0.656691	0.240005	0.138205	0.282308	0.360771
2.9195	0.275693	0.261184	0.976333	0.730638	0.553171	0.464901	0.111681	0.790433	0.17291	0.157042	0.271175	0.654959	0.239937	0.138821	0.28011	0.357813
2.92	0.274442	0.262865	0.974481	0.730456	0.552998	0.46283	0.112855	0.792257	0.170283	0.153951	0.26879	0.65317	0.239889	0.139435	0.277933	0.354876
2.9205	0.273204	0.264533	0.972506	0.730156	0.552852	0.460757	0.114064	0.794034	0.167682	0.150904	0.266395	0.651324	0.239861	0.140045	0.275779	0.351961
2.921	0.271981	0.266188	0.970409	0.729739	0.552733	0.45868	0.11531	0.795766	0.165108	0.147901	0.263993	0.64942	0.239853	0.140652	0.273646	0.349066
2.9215	0.270774	0.26783	0.96819	0.729206	0.552643	0.456601	0.116594	0.79745	0.162562	0.144943	0.261585	0.647458	0.239866	0.141255	0.271537	0.346193
2.922	0.269583	0.269457	0.965848	0.728558	0.552581	0.454519	0.117914	0.799088	0.160043	0.142029	0.259172	0.645437	0.2399	0.141854	0.26945	0.34334
2.9225	0.268411	0.27107	0.963384	0.727797	0.552547	0.452435	0.119272	0.800678	0.157553	0.139161	0.256755	0.643359	0.239957	0.142448	0.267385	0.340507
2.923	0.267257	0.272667	0.960799	0.726924	0.552543	0.450349	0.120668	0.802221	0.155093	0.136338	0.254338	0.641221	0.240036	0.143037	0.265344	0.337695
2.9235	0.266124	0.274249	0.958092	0.725941	0.552567	0.448261	0.122103	0.803716	0.152662	0.133561	0.25192	0.639026	0.240138	0.143621	0.263325	0.334901
2.924	0.265012	0.275815	0.955263	0.72485	0.55262	0.446171	0.123575	0.805164	0.150261	0.13083	0.249503	0.636772	0.240265	0.1442	0.261329	0.332127
2.9245	0.263921	0.277363	0.952313	0.723652	0.552703	0.44408	0.125086	0.806563	0.147891	0.128145	0.247089	0.63446	0.240416	0.144772	0.259355	0.329371
2.925	0.262853	0.278893	0.949241	0.722349	0.552816	0.441986	0.126635	0.807913	0.145552	0.125506	0.244678	0.632089	0.240591	0.145338	0.257404	0.326633
2.9255	0.261808	0.280405	0.946047	0.720943	0.552959	0.439892	0.128223	0.809215	0.143245	0.122914	0.242272	0.629659	0.240793	0.145898	0.255475	0.323913
2.926	0.260788	0.281897	0.94273	0.719435	0.553133	0.437795	0.12985	0.810468	0.14097	0.120368	0.239872	0.627171	0.24102	0.14645	0.253569	0.32121
2.9265	0.259792	0.283368	0.939291	0.717828	0.553338	0.435696	0.131516	0.811671	0.138727	0.117868	0.237478	0.624624	0.241274	0.146996	0.251684	0.318525
2.927	0.258821	0.284818	0.935728	0.716122	0.553575	0.433595	0.13322	0.812823	0.136517	0.115415	0.235093	0.622019	0.241554	0.147534	0.249821	0.315858
2.9275	0.257877	0.286244	0.932041	0.71432	0.553845	0.43149	0.134964	0.813926	0.134339	0.113008	0.232716	0.619356	0.241862	0.148066	0.24798	0.313208
2.928	0.256959	0.287647	0.928229	0.712423	0.554147	0.429383	0.136746	0.814977	0.132195	0.110648	0.23035	0.616634	0.242197	0.148591	0.246161	0.310576
2.9285	0.256068	0.289024	0.924292	0.710432	0.554483	0.427271	0.138568	0.815978	0.130085	0.108335	0.227994	0.613854	0.242559	0.149109	0.244363	0.307962
2.929	0.255205	0.290375	0.920227	0.70835	0.554851	0.425155	0.140428	0.816928	0.128009	0.106068	0.225649	0.611016	0.242949	0.14962	0.242587	0.305367
2.9295	0.254371	0.291698	0.916035	0.706176	0.555252	0.423034	0.142327	0.817827	0.125967	0.103847	0.223316	0.608118	0.243367	0.150126	0.240832	0.30279
2.93	0.253567	0.292991	0.911714	0.703912	0.555686	0.420909	0.144265	0.818675	0.123961	0.101673	0.220996	0.605161	0.243813	0.150625	0.239099	0.300232
2.9305	0.252793	0.294253	0.907264	0.70156	0.556152	0.418778	0.146241	0.819472	0.121989	0.099545	0.21869	0.602145	0.244286	0.151118	0.237386	0.297693
