datacolumns 17
datarows 947
time	addmag_r	bicfemlh_r	gaslat_r	gasmed_r	gmax_r	gmed_r	gra_r	perlong_r	recfem_r	sar_r	semimem_r	sol_r	tfl_r	tibant_r	vaslat_r	vasmed_r
2.906	0.08635	0.007472	0.0076	0.006508	0.014185	0.016419	0.146596	0.017705	0.008759	0.035476	0.05669	0.005918	0.038309	0.133957	0.002392	0.001752
2.9065	0.086002	0.007431	0.007574	0.006502	0.014101	0.016234	0.145102	0.017671	0.008714	0.035215	0.057234	0.005917	0.037707	0.132586	0.002354	0.001748
2.907	0.085644	0.007391	0.007549	0.006496	0.014022	0.01605	0.14362	0.017638	0.008667	0.034954	0.057775	0.005915	0.037107	0.131227	0.002317	0.001744
2.9075	0.085276	0.007353	0.007524	0.006489	0.013949	0.015868	0.142151	0.017604	0.00862	0.034692	0.05831	0.005914	0.03651	0.12988	0.00228	0.00174
2.908	0.084897	0.007316	0.007499	0.006483	0.013882	0.015686	0.140693	0.017571	0.008572	0.034431	0.058841	0.005912	0.035915	0.128544	0.002243	0.001737
2.9085	0.084506	0.00728	0.007474	0.006477	0.013821	0.015505	0.139247	0.017538	0.008522	0.034169	0.059365	0.005909	0.035322	0.127221	0.002206	0.001734
2.909	0.084104	0.007245	0.007449	0.00647	0.013766	0.015326	0.137813	0.017505	0.008472	0.033907	0.059884	0.005907	0.034733	0.125911	0.002169	0.001731
2.9095	0.08369	0.007211	0.007423	0.006464	0.013718	0.015148	0.136389	0.017472	0.00842	0.033644	0.060396	0.005904	0.034146	0.124613	0.002133	0.001728
2.91	0.083264	0.007179	0.007397	0.006457	0.013677	0.014971	0.134975	0.017439	0.008368	0.033381	0.060901	0.0059	0.033562	0.123328	0.002096	0.001726
2.9105	0.082827	0.007148	0.007372	0.00645	0.013642	0.014795	0.133572	0.017406	0.008315	0.033118	0.061399	0.005896	0.032982	0.122056	0.002061	0.001724
2.911	0.082378	0.007118	0.007346	0.006444	0.013614	0.014621	0.132179	0.017372	0.00826	0.032854	0.061888	0.005892	0.032405	0.120796	0.002025	0.001722
2.9115	0.081917	0.007089	0.007319	0.006436	0.013592	0.014448	0.130796	0.017339	0.008205	0.032589	0.062369	0.005887	0.031832	0.11955	0.001989	0.00172
2.912	0.081444	0.007061	0.007293	0.006429	0.013578	0.014276	0.129421	0.017305	0.00815	0.032324	0.062841	0.005881	0.031263	0.118317	0.001954	0.001719
2.9125	0.080959	0.007034	0.007266	0.006422	0.013572	0.014106	0.128055	0.017271	0.008093	0.032057	0.063303	0.005875	0.030698	0.117097	0.00192	0.001718
2.913	0.080463	0.007009	0.007239	0.006414	0.013572	0.013938	0.126697	0.017237	0.008035	0.03179	0.063754	0.005869	0.030136	0.11589	0.001885	0.001718
2.9135	0.079955	0.006984	0.007212	0.006406	0.01358	0.013771	0.125348	0.017202	0.007977	0.031522	0.064195	0.005861	0.029579	0.114696	0.001851	0.001717
2.914	0.079436	0.006961	0.007184	0.006397	0.013595	0.013606	0.124006	0.017167	0.007918	0.031253	0.064624	0.005854	0.029027	0.113515	0.001817	0.001717
2.9145	0.078905	0.006938	0.007155	0.006389	0.013619	0.013443	0.122671	0.017132	0.007858	0.030983	0.065042	0.005845	0.028479	0.112347	0.001784	0.001717
2.915	0.078362	0.006917	0.007127	0.006379	0.01365	0.013282	0.121343	0.017096	0.007798	0.030711	0.065446	0.005836	0.027935	0.111193	0.001751	0.001718
2.9155	0.077809	0.006896	0.007098	0.00637	0.013689	0.013122	0.120022	0.01706	0.007737	0.030438	0.065838	0.005827	0.027396	0.110051	0.001719	0.001718
2.916	0.077245	0.006877	0.007068	0.00636	0.013736	0.012964	0.118707	0.017024	0.007676	0.030165	0.066215	0.005816	0.026862	0.108923	0.001687	0.001719
2.9165	0.07667	0.006858	0.007038	0.00635	0.013791	0.012808	0.117398	0.016987	0.007613	0.029889	0.066578	0.005805	0.026333	0.107808	0.001656	0.001721
2.917	0.076086	0.006841	0.007007	0.00634	0.013854	0.012654	0.116094	0.01695	0.007551	0.029613	0.066926	0.005794	0.025809	0.106707	0.001625	0.001722
2.9175	0.075492	0.006824	0.006976	0.006329	0.013926	0.012502	0.114796	0.016912	0.007487	0.029335	0.067258	0.005781	0.02529	0.105619	0.001594	0.001724
2.918	0.074888	0.006808	0.006944	0.006317	0.014006	0.012351	0.113503	0.016874	0.007424	0.029055	0.067574	0.005768	0.024776	0.104545	0.001564	0.001726
2.9185	0.074276	0.006793	0.006912	0.006305	0.014095	0.012203	0.112216	0.016836	0.007359	0.028775	0.067873	0.005755	0.024267	0.103485	0.001535	0.001729
2.919	0.073656	0.006778	0.006879	0.006293	0.014193	0.012057	0.110933	0.016797	0.007295	0.028492	0.068154	0.00574	0.023764	0.102438	0.001506	0.001731
2.9195	0.073027	0.006765	0.006846	0.00628	0.014299	0.011913	0.109656	0.016757	0.00723	0.028208	0.068418	0.005725	0.023266	0.101406	0.001478	0.001734
2.92	0.072391	0.006752	0.006812	0.006267	0.014414	0.011771	0.108384	0.016717	0.007164	0.027923	0.068662	0.005709	0.022774	0.100387	0.001451	0.001737
2.9205	0.071748	0.00674	0.006777	0.006253	0.014539	0.011631	0.107116	0.016677	0.007099	0.027636	0.068888	0.005693	0.022286	0.099383	0.001424	0.001741
2.921	0.071098	0.006729	0.006742	0.006238	0.014672	0.011494	0.105854	0.016636	0.007033	0.027348	0.069093	0.005676	0.021805	0.098392	0.001397	0.001745
2.9215	0.070442	0.006718	0.006707	0.006223	0.014815	0.011359	0.104597	0.016594	0.006967	0.027058	0.069278	0.005659	0.021329	0.097415	0.001372	0.001749
2.922	0.069781	0.006708	0.006671	0.006208	0.014966	0.011227	0.103344	0.016552	0.0069	0.026766	0.069442	0.00564	0.020858	0.096453	0.001347	0.001753
2.9225	0.069114	0.006699	0.006634	0.006191	0.015127	0.011097	0.102096	0.016509	0.006833	0.026474	0.069585	0.005622	0.020393	0.095504	0.001323	0.001757
2.923	0.068443	0.00669	0.006597	0.006175	0.015298	0.010969	0.100854	0.016466	0.006767	0.02618	0.069705	0.005602	0.019934	0.09457	0.0013	0.001762
2.9235	0.067767	0.006683	0.006559	0.006157	0.015478	0.010844	0.099616	0.016422	0.0067	0.025884	0.069803	0.005582	0.01948	0.093649	0.001277	0.001767
2.924	0.067088	0.006675	0.006521	0.006139	0.015668	0.010723	0.098383	0.016377	0.006632	0.025587	0.069877	0.005562	0.019032	0.092742	0.001255	0.001772
2.9245	0.066406	0.006669	0.006482	0.00612	0.015867	0.010603	0.097156	0.016332	0.006565	0.025289	0.069927	0.005541	0.018589	0.091849	0.001234	0.001778
2.925	0.065722	0.006663	0.006442	0.0061	0.016077	0.010487	0.095935	0.016286	0.006498	0.02499	0.069952	0.005519	0.018152	0.090969	0.001214	0.001784
2.9255	0.065035	0.006658	0.006402	0.00608	0.016296	0.010374	0.09472	0.016239	0.006431	0.024689	0.069953	0.005497	0.017721	0.090103	0.001195	0.00179
2.926	0.064347	0.006653	0.006361	0.006059	0.016525	0.010264	0.093511	0.016191	0.006364	0.024388	0.069928	0.005474	0.017296	0.08925	0.001177	0.001796
2.9265	0.063658	0.00665	0.00632	0.006037	0.016764	0.010157	0.092308	0.016143	0.006296	0.024086	0.069877	0.005451	0.016876	0.088409	0.001159	0.001803
2.927	0.062969	0.006647	0.006278	0.006014	0.017014	0.010054	0.091113	0.016094	0.006229	0.023782	0.0698	0.005427	0.016463	0.087582	0.001143	0.001809
2.9275	0.06228	0.006645	0.006236	0.00599	0.017273	0.009953	0.089925	0.016045	0.006162	0.023479	0.069697	0.005403	0.016055	0.086767	0.001127	0.001816
2.928	0.061592	0.006644	0.006193	0.005966	0.017543	0.009857	0.088744	0.015995	0.006096	0.023175	0.069568	0.005378	0.015653	0.085964	0.001113	0.001824
2.9285	0.060905	0.006644	0.00615	0.005941	0.017824	0.009763	0.087571	0.015944	0.006029	0.02287	0.069414	0.005353	0.015257	0.085174	0.001099	0.001831
2.929	0.060221	0.006645	0.006106	0.005914	0.018115	0.009674	0.086406	0.015892	0.005963	0.022565	0.069234	0.005327	0.014867	0.084396	0.001087	0.001839
2.9295	0.059538	0.006647	0.006061	0.005887	0.018416	0.009588	0.08525	0.01584	0.005897	0.02226	0.069028	0.005301	0.014483	0.083629	0.001075	0.001847
2.93	0.058859	0.00665	0.006017	0.005859	0.018728	0.009505	0.084101	0.015787	0.005831	0.021956	0.068798	0.005274	0.014105	0.082873	0.001065	0.001855
2.9305	0.058184	0.006655	0.005971	0.00583	0.019051	0.009427	0.082961	0.015733	0.005766	0.021651	0.068543	0.005246	0.013733	0.082129	0.001056	0.001863
2.931	0.057513	0.006661	0.005926	0.0058	0.019384	0.009353	0.08183	0.015679	0.005701	0.021346	0.068265	0.005218	0.013367	0.081396	0.001048	0.001872
2.9315	0.056846	0.006668	0.005879	0.005769	0.019729	0.009282	0.080708	0.015623	0.005637	0.021042	0.067963	0.00519	0.013007	0.080674	0.001042	0.001881
2.932	0.056185	0.006677	0.005833	0.005737	0.020084	0.009216	0.079594	0.015567	0.005573	0.020739	0.067639	0.005161	0.012653	0.079962	0.001036	0.00189
2.9325	0.05553	0.006687	0.005786	0.005704	0.02045	0.009154	0.07849	0.015511	0.00551	0.020436	0.067293	0.005132	0.012305	0.07926	0.001032	0.001899
2.933	0.054881	0.0067	0.005738	0.00567	0.020827	0.009097	0.077395	0.015453	0.005447	0.020133	0.066927	0.005102	0.011963	0.078568	0.001029	0.001909
2.9335	0.054239	0.006714	0.005691	0.005635	0.021215	0.009043	0.076309	0.015395	0.005384	0.019832	0.066541	0.005071	0.011627	0.077886	0.001028	0.001919
2.934	0.053605	0.00673	0.005643	0.005599	0.021614	0.008994	0.075233	0.015336	0.005322	0.019531	0.066136	0.00504	0.011297	0.077213	0.001028	0.001929
2.9345	0.052979	0.006748	0.005594	0.005562	0.022025	0.00895	0.074167	0.015276	0.005261	0.019231	0.065714	0.005008	0.010972	0.076549	0.001029	0.001939
2.935	0.052361	0.006769	0.005545	0.005524	0.022446	0.00891	0.073112	0.015215	0.005201	0.018932	0.065274	0.004976	0.010654	0.075893	0.001032	0.001949
2.9355	0.051753	0.006792	0.005496	0.005485	0.022878	0.008875	0.072066	0.015153	0.005141	0.018635	0.064817	0.004944	0.010342	0.075246	0.001036	0.00196
2.936	0.051155	0.006817	0.005447	0.005445	0.023322	0.008844	0.071032	0.015091	0.005081	0.018339	0.064346	0.004911	0.010036	0.074607	0.001041	0.001971
2.9365	0.050566	0.006846	0.005397	0.005403	0.023777	0.008819	0.070009	0.015028	0.005023	0.018044	0.06386	0.004877	0.009736	0.073975	0.001048	0.001982
2.937	0.049989	0.006877	0.005348	0.005361	0.024243	0.008798	0.068997	0.014965	0.004965	0.017751	0.063361	0.004843	0.009441	0.073351	0.001057	0.001994
2.9375	0.049423	0.006911	0.005298	0.005318	0.024721	0.008782	0.067996	0.0149	0.004907	0.01746	0.062848	0.004808	0.009153	0.072733	0.001067	0.002005
2.938	0.048869	0.006948	0.005247	0.005273	0.025209	0.008771	0.067008	0.014835	0.004851	0.01717	0.062324	0.004772	0.00887	0.072123	0.001079	0.002017
2.9385	0.048327	0.006989	0.005197	0.005228	0.025709	0.008765	0.066032	0.014769	0.004795	0.016882	0.061789	0.004737	0.008593	0.071518	0.001093	0.002029
2.939	0.047798	0.007034	0.005146	0.005181	0.02622	0.008764	0.065069	0.014703	0.004739	0.016596	0.061243	0.0047	0.008322	0.07092	0.001108	0.002042
2.9395	0.047283	0.007082	0.005096	0.005133	0.026742	0.008768	0.064118	0.014636	0.004685	0.016312	0.060688	0.004663	0.008057	0.070328	0.001125	0.002054
2.94	0.046781	0.007135	0.005045	0.005085	0.027276	0.008777	0.06318	0.014568	0.004631	0.01603	0.060125	0.004625	0.007798	0.069741	0.001143	0.002067
2.9405	0.046294	0.007192	0.004994	0.005035	0.02782	0.008792	0.062256	0.014499	0.004579	0.015751	0.059554	0.004587	0.007544	0.069159	0.001163	0.00208
2.941	0.045821	0.007253	0.004943	0.004984	0.028376	0.008812	0.061345	0.01443	0.004526	0.015473	0.058977	0.004549	0.007296	0.068581	0.001186	0.002093
2.9415	0.045364	0.007319	0.004892	0.004932	0.028943	0.008837	0.060448	0.01436	0.004475	0.015198	0.058394	0.004509	0.007053	0.068008	0.001209	0.002107
2.942	0.044923	0.00739	0.00484	0.004879	0.029521	0.008867	0.059565	0.01429	0.004425	0.014925	0.057807	0.004469	0.006816	0.067438	0.001235	0.00212
2.9425	0.044498	0.007466	0.004789	0.004825	0.03011	0.008903	0.058697	0.014218	0.004375	0.014655	0.057216	0.004429	0.006585	0.066871	0.001263	0.002134
2.943	0.04409	0.007547	0.004738	0.004769	0.03071	0.008944	0.057843	0.014147	0.004326	0.014387	0.056623	0.004387	0.006359	0.066308	0.001292	0.002148
2.9435	0.043699	0.007634	0.004686	0.004713	0.031321	0.008991	0.057003	0.014074	0.004278	0.014122	0.056029	0.004346	0.006139	0.065746	0.001324	0.002163
2.944	0.043325	0.007726	0.004635	0.004656	0.031943	0.009043	0.056179	0.014001	0.004231	0.013859	0.055434	0.004303	0.005924	0.065187	0.001357	0.002178
2.9445	0.04297	0.007825	0.004583	0.004597	0.032576	0.009101	0.05537	0.013928	0.004185	0.013599	0.05484	0.00426	0.005715	0.064629	0.001393	0.002192
2.945	0.042633	0.00793	0.004532	0.004538	0.033219	0.009165	0.054576	0.013854	0.004139	0.013342	0.054248	0.004217	0.00551	0.064073	0.001431	0.002208
2.9455	0.042315	0.008042	0.004481	0.004478	0.033873	0.009234	0.053798	0.013779	0.004094	0.013088	0.053658	0.004172	0.005311	0.063517	0.00147	0.002223
2.946	0.042017	0.00816	0.004429	0.004416	0.034538	0.009309	0.053035	0.013704	0.004051	0.012837	0.053072	0.004127	0.005118	0.062962	0.001512	0.002238
2.9465	0.041738	0.008286	0.004378	0.004354	0.035214	0.009389	0.052289	0.013629	0.004008	0.012588	0.05249	0.004082	0.004929	0.062407	0.001556	0.002254
2.947	0.04148	0.008419	0.004327	0.00429	0.0359	0.009475	0.051558	0.013553	0.003966	0.012342	0.051914	0.004036	0.004746	0.061852	0.001602	0.00227
2.9475	0.041243	0.00856	0.004275	0.004226	0.036596	0.009567	0.050843	0.013477	0.003925	0.0121	0.051345	0.003989	0.004567	0.061296	0.00165	0.002287
2.948	0.041027	0.008709	0.004224	0.00416	0.037302	0.009665	0.050145	0.013401	0.003885	0.01186	0.050783	0.003941	0.004394	0.06074	0.0017	0.002303
2.9485	0.040833	0.008866	0.004173	0.004094	0.038019	0.009768	0.049463	0.013324	0.003846	0.011624	0.050229	0.003893	0.004226	0.060183	0.001753	0.00232
2.949	0.040661	0.009031	0.004122	0.004027	0.038746	0.009878	0.048797	0.013247	0.003807	0.011391	0.049685	0.003844	0.004062	0.059624	0.001807	0.002338
2.9495	0.040512	0.009206	0.004071	0.003958	0.039482	0.009993	0.048148	0.01317	0.00377	0.01116	0.04915	0.003795	0.003903	0.059064	0.001864	0.002355
2.95	0.040385	0.009389	0.00402	0.003889	0.040228	0.010114	0.047515	0.013092	0.003734	0.010933	0.048627	0.003745	0.003749	0.058502	0.001924	0.002373
2.9505	0.040282	0.009581	0.00397	0.003819	0.040984	0.010241	0.0469	0.013015	0.003698	0.010709	0.048115	0.003694	0.0036	0.057939	0.001986	0.002391
2.951	0.040203	0.009783	0.003919	0.003747	0.041749	0.010374	0.046301	0.012937	0.003664	0.010489	0.047616	0.003643	0.003456	0.057373	0.00205	0.002409
2.9515	0.040148	0.009995	0.003869	0.003675	0.042524	0.010512	0.045719	0.01286	0.00363	0.010271	0.04713	0.003591	0.003316	0.056805	0.002116	0.002427
2.952	0.040117	0.010217	0.003818	0.003602	0.043308	0.010657	0.045154	0.012782	0.003598	0.010057	0.046659	0.003538	0.00318	0.056236	0.002185	0.002446
2.9525	0.040111	0.010449	0.003768	0.003528	0.0441	0.010807	0.044606	0.012704	0.003566	0.009846	0.046203	0.003485	0.003049	0.055664	0.002257	0.002465
2.953	0.04013	0.010692	0.003718	0.003453	0.044902	0.010964	0.044074	0.012626	0.003535	0.009639	0.045762	0.003431	0.002923	0.055091	0.002331	0.002485
2.9535	0.040175	0.010946	0.003667	0.003378	0.045711	0.011126	0.04356	0.012549	0.003506	0.009434	0.045338	0.003377	0.002801	0.054515	0.002407	0.002504
2.954	0.040246	0.011211	0.003617	0.003301	0.04653	0.011294	0.043063	0.012471	0.003477	0.009233	0.044932	0.003322	0.002683	0.053939	0.002486	0.002524
2.9545	0.040343	0.011487	0.003568	0.003224	0.047356	0.011468	0.042583	0.012394	0.003449	0.009036	0.044543	0.003266	0.002569	0.053361	0.002568	0.002545
2.955	0.040467	0.011775	0.003518	0.003145	0.048191	0.011648	0.04212	0.012316	0.003422	0.008841	0.044174	0.00321	0.002459	0.052782	0.002652	0.002565
2.9555	0.040618	0.012074	0.003468	0.003066	0.049034	0.011834	0.041674	0.012239	0.003397	0.008651	0.043824	0.003153	0.002354	0.052202	0.002739	0.002586
2.956	0.040795	0.012386	0.003418	0.002986	0.049884	0.012026	0.041245	0.012163	0.003372	0.008463	0.043494	0.003096	0.002252	0.051622	0.002828	0.002607
2.9565	0.041	0.012711	0.003369	0.002906	0.050741	0.012224	0.040832	0.012086	0.003348	0.008279	0.043186	0.003038	0.002155	0.051041	0.00292	0.002628
2.957	0.041233	0.013048	0.00332	0.002824	0.051606	0.012428	0.040437	0.01201	0.003325	0.008098	0.042899	0.00298	0.002062	0.050459	0.003015	0.00265
2.9575	0.041494	0.013398	0.00327	0.002742	0.052478	0.012637	0.040059	0.011934	0.003303	0.007921	0.042635	0.002921	0.001972	0.049878	0.003112	0.002672
2.958	0.041783	0.013761	0.003221	0.002659	0.053357	0.012853	0.039697	0.011859	0.003283	0.007747	0.042393	0.002861	0.001886	0.049297	0.003213	0.002694
2.9585	0.042101	0.014137	0.003172	0.002575	0.054242	0.013074	0.039352	0.011784	0.003263	0.007577	0.042176	0.002801	0.001804	0.048716	0.003316	0.002716
2.959	0.042448	0.014528	0.003123	0.002491	0.055133	0.013301	0.039024	0.01171	0.003244	0.00741	0.041983	0.002741	0.001726	0.048135	0.003422	0.002739
2.9595	0.042824	0.014932	0.003074	0.002406	0.05603	0.013534	0.038713	0.011636	0.003226	0.007246	0.041815	0.00268	0.001651	0.047555	0.00353	0.002762
2.96	0.04323	0.015351	0.003025	0.00232	0.056932	0.013772	0.038418	0.011562	0.003209	0.007086	0.041672	0.002619	0.00158	0.046976	0.003642	0.002785
2.9605	0.043665	0.015784	0.002976	0.002233	0.057841	0.014016	0.038139	0.011489	0.003193	0.00693	0.041557	0.002557	0.001512	0.046398	0.003756	0.002808
2.961	0.044131	0.016231	0.002927	0.002146	0.058754	0.014266	0.037876	0.011417	0.003178	0.006776	0.041468	0.002495	0.001448	0.045821	0.003873	0.002832
2.9615	0.044626	0.016694	0.002878	0.002059	0.059672	0.014522	0.03763	0.011345	0.003165	0.006626	0.041406	0.002432	0.001387	0.045244	0.003994	0.002856
2.962	0.045153	0.017172	0.00283	0.00197	0.060595	0.014783	0.037399	0.011273	0.003152	0.00648	0.041373	0.002369	0.001329	0.044669	0.004117	0.00288
2.9625	0.04571	0.017665	0.002781	0.001882	0.061522	0.01505	0.037185	0.011202	0.00314	0.006337	0.041369	0.002306	0.001275	0.044096	0.004243	0.002904
2.963	0.046298	0.018174	0.002732	0.001792	0.062454	0.015322	0.036986	0.011132	0.003129	0.006197	0.041394	0.002242	0.001224	0.043524	0.004372	0.002929
2.9635	0.046918	0.018699	0.002684	0.001703	0.063389	0.0156	0.036802	0.011062	0.003119	0.006061	0.041449	0.002178	0.001176	0.042954	0.004504	0.002954
2.964	0.047569	0.01924	0.002635	0.001612	0.064328	0.015883	0.036634	0.010993	0.00311	0.005928	0.041535	0.002114	0.001131	0.042385	0.00464	0.002979
2.9645	0.048252	0.019798	0.002586	0.001522	0.06527	0.016172	0.036482	0.010925	0.003102	0.005798	0.041652	0.00205	0.001089	0.041819	0.004778	0.003004
2.965	0.048967	0.020372	0.002538	0.001431	0.066216	0.016466	0.036344	0.010857	0.003095	0.005672	0.0418	0.001985	0.00105	0.041254	0.004919	0.003029
2.9655	0.049713	0.020963	0.002489	0.001339	0.067165	0.016765	0.036221	0.010789	0.00309	0.005549	0.04198	0.00192	0.001014	0.040692	0.005064	0.003055
2.966	0.050492	0.021572	0.002441	0.001248	0.068116	0.01707	0.036113	0.010722	0.003085	0.005429	0.042194	0.001855	0.000981	0.040132	0.005211	0.003081
2.9665	0.051304	0.022197	0.002392	0.001156	0.069069	0.017379	0.036019	0.010656	0.003081	0.005313	0.04244	0.001789	0.000951	0.039575	0.005362	0.003107
2.967	0.052148	0.02284	0.002343	0.001063	0.070025	0.017694	0.035939	0.01059	0.003078	0.0052	0.04272	0.001723	0.000923	0.03902	0.005516	0.003133
2.9675	0.053024	0.023501	0.002294	0.000971	0.070983	0.018014	0.035874	0.010525	0.003076	0.00509	0.043034	0.001658	0.000898	0.038468	0.005673	0.003159
2.968	0.053934	0.02418	0.002245	0.000879	0.071943	0.018339	0.035822	0.01046	0.003075	0.004983	0.043382	0.001592	0.000876	0.037919	0.005833	0.003186
2.9685	0.054876	0.024876	0.002196	0.000786	0.072904	0.018669	0.035784	0.010396	0.003076	0.00488	0.043766	0.001526	0.000856	0.037373	0.005996	0.003212
2.969	0.055851	0.025591	0.002147	0.000693	0.073867	0.019003	0.03576	0.010333	0.003077	0.00478	0.044185	0.001459	0.000839	0.036829	0.006162	0.003239
2.9695	0.05686	0.026325	0.002098	0.000601	0.074831	0.019343	0.035749	0.010269	0.003079	0.004683	0.04464	0.001393	0.000824	0.036289	0.006332	0.003266
2.97	0.057902	0.027077	0.002049	0.000508	0.075795	0.019687	0.03575	0.010207	0.003082	0.00459	0.045131	0.001327	0.000812	0.035752	0.006504	0.003293
2.9705	0.058978	0.027848	0.001999	0.000416	0.076761	0.020036	0.035765	0.010145	0.003087	0.004499	0.04566	0.00126	0.000802	0.035218	0.00668	0.003321
2.971	0.060087	0.028638	0.00195	0.000323	0.077726	0.02039	0.035792	0.010083	0.003092	0.004412	0.046225	0.001194	0.000794	0.034687	0.006859	0.003348
2.9715	0.06123	0.029447	0.0019	0.000231	0.078692	0.020748	0.035832	0.010022	0.003098	0.004328	0.046828	0.001127	0.000788	0.034159	0.007041	0.003376
2.972	0.062406	0.030275	0.00185	0.00014	0.079658	0.02111	0.035883	0.009961	0.003106	0.004247	0.047469	0.001061	0.000785	0.033635	0.007227	0.003403
2.9725	0.063616	0.031123	0.0018	4.8e-05	0.080623	0.021477	0.035947	0.009901	0.003114	0.004169	0.048149	0.000995	0.000784	0.033115	0.007415	0.003431
2.973	0.06486	0.03199	0.00175	0	0.081588	0.021848	0.036022	0.009841	0.003123	0.004094	0.048867	0.000928	0.000785	0.032597	0.007607	0.003459
2.9735	0.066138	0.032877	0.001699	0	0.082552	0.022223	0.036109	0.009781	0.003134	0.004022	0.049624	0.000862	0.000788	0.032083	0.007802	0.003487
2.974	0.06745	0.033783	0.001649	0	0.083514	0.022603	0.036207	0.009722	0.003145	0.003953	0.050421	0.000796	0.000793	0.031573	0.008	0.003515
2.9745	0.068796	0.03471	0.001598	0	0.084475	0.022986	0.036316	0.009663	0.003157	0.003887	0.051257	0.00073	0.000799	0.031066	0.008201	0.003543
2.975	0.070176	0.035656	0.001547	0	0.085435	0.023373	0.036435	0.009605	0.003171	0.003824	0.052133	0.000664	0.000808	0.030563	0.008405	0.003571
2.9755	0.071589	0.036623	0.001495	0	0.086393	0.023764	0.036565	0.009547	0.003185	0.003764	0.053049	0.000598	0.000818	0.030064	0.008612	0.003599
2.976	0.073037	0.037609	0.001444	0	0.087349	0.024159	0.036705	0.009489	0.0032	0.003707	0.054006	0.000532	0.000831	0.029568	0.008823	0.003627
2.9765	0.074519	0.038616	0.001392	0	0.088302	0.024557	0.036855	0.009431	0.003217	0.003653	0.055004	0.000467	0.000845	0.029075	0.009036	0.003655
2.977	0.076034	0.039643	0.00134	0	0.089252	0.024959	0.037014	0.009374	0.003234	0.003601	0.056043	0.000402	0.00086	0.028587	0.009252	0.003683
2.9775	0.077583	0.04069	0.001288	0	0.0902	0.025364	0.037183	0.009318	0.003252	0.003552	0.057123	0.000337	0.000878	0.028102	0.009472	0.003711
2.978	0.079166	0.041758	0.001235	0	0.091143	0.025772	0.037361	0.009261	0.003271	0.003506	0.058245	0.000272	0.000897	0.027621	0.009694	0.003738
2.9785	0.080783	0.042845	0.001182	0	0.092083	0.026183	0.037547	0.009205	0.003291	0.003463	0.059408	0.000208	0.000917	0.027143	0.009919	0.003766
2.979	0.082433	0.043954	0.001129	0	0.093019	0.026597	0.037742	0.00915	0.003312	0.003423	0.060613	0.000144	0.000939	0.02667	0.010148	0.003794
2.9795	0.084116	0.045082	0.001076	0	0.093951	0.027014	0.037946	0.009094	0.003333	0.003385	0.06186	8.1e-05	0.000962	0.0262	0.010379	0.003821
2.98	0.085832	0.046231	0.001023	0	0.094877	0.027433	0.038157	0.00904	0.003356	0.00335	0.06315	1.7e-05	0.000987	0.025734	0.010613	0.003849
2.9805	0.087582	0.0474	0.000969	0	0.095798	0.027855	0.038376	0.008985	0.003379	0.003317	0.064481	0	0.001013	0.025272	0.01085	0.003876
2.981	0.089364	0.048589	0.000916	0	0.096713	0.02828	0.038602	0.008931	0.003404	0.003287	0.065856	0	0.00104	0.024814	0.011089	0.003902
2.9815	0.091178	0.049799	0.000862	0	0.097621	0.028706	0.038834	0.008878	0.003429	0.00326	0.067272	0	0.001069	0.02436	0.011331	0.003929
2.982	0.093025	0.051029	0.000807	0	0.098523	0.029135	0.039074	0.008824	0.003455	0.003235	0.068732	0	0.001098	0.02391	0.011576	0.003956
2.9825	0.094904	0.052279	0.000753	0	0.099419	0.029565	0.03932	0.008772	0.003481	0.003213	0.070235	0	0.001129	0.023464	0.011824	0.003982
2.983	0.096814	0.053548	0.000699	0	0.100306	0.029997	0.039571	0.008719	0.003509	0.003193	0.071781	0	0.001161	0.023022	0.012074	0.004008
2.9835	0.098756	0.054838	0.000644	0	0.101186	0.030431	0.039828	0.008667	0.003537	0.003175	0.07337	0	0.001194	0.022584	0.012326	0.004033
2.984	0.100729	0.056148	0.00059	0	0.102058	0.030866	0.040091	0.008616	0.003566	0.00316	0.075002	0	0.001228	0.02215	0.012581	0.004059
2.9845	0.102733	0.057477	0.000535	0	0.10292	0.031302	0.040358	0.008565	0.003596	0.003147	0.076678	0	0.001262	0.02172	0.012839	0.004084
2.985	0.104767	0.058826	0.00048	0	0.103774	0.03174	0.04063	0.008514	0.003627	0.003136	0.078398	0	0.001298	0.021294	0.013098	0.004108
2.9855	0.106831	0.060194	0.000426	0	0.104618	0.032178	0.040905	0.008464	0.003658	0.003128	0.080161	0	0.001334	0.020873	0.01336	0.004132
2.986	0.108925	0.061581	0.000371	0	0.105452	0.032618	0.041185	0.008414	0.00369	0.003122	0.081969	0	0.001372	0.020455	0.013624	0.004156
2.9865	0.111048	0.062988	0.000316	0	0.106275	0.033058	0.041468	0.008365	0.003722	0.003118	0.08382	0	0.00141	0.020042	0.01389	0.004179
2.987	0.113199	0.064413	0.000261	0	0.107086	0.033499	0.041754	0.008316	0.003755	0.003116	0.085716	0	0.001448	0.019633	0.014158	0.004202
2.9875	0.115379	0.065857	0.000207	0	0.107886	0.033941	0.042043	0.008268	0.003789	0.003117	0.087655	0	0.001488	0.019228	0.014428	0.004225
2.988	0.117588	0.06732	0.000152	0	0.108674	0.034383	0.042334	0.00822	0.003823	0.003119	0.089639	0	0.001528	0.018828	0.0147	0.004246
2.9885	0.119823	0.068801	9.7e-05	0	0.109449	0.034826	0.042627	0.008172	0.003858	0.003124	0.091668	0	0.001568	0.018432	0.014974	0.004268
2.989	0.122086	0.070301	4.3e-05	0	0.11021	0.035269	0.042922	0.008125	0.003893	0.00313	0.093741	0	0.001609	0.018041	0.015249	0.004289
2.9895	0.124375	0.071818	0	0	0.110958	0.035712	0.043219	0.008079	0.003929	0.003139	0.095858	0	0.001651	0.017654	0.015526	0.004309
2.99	0.126691	0.073353	0	0	0.11169	0.036155	0.043516	0.008033	0.003966	0.003149	0.09802	0	0.001693	0.017271	0.015804	0.004328
2.9905	0.129033	0.074905	0	0	0.112408	0.036599	0.043815	0.007987	0.004002	0.003161	0.100226	0	0.001736	0.016893	0.016083	0.004347
2.991	0.1314	0.076474	0	0	0.11311	0.037041	0.044114	0.007942	0.00404	0.003175	0.102477	0	0.001779	0.01652	0.016364	0.004366
2.9915	0.133792	0.078061	0	0	0.113796	0.037484	0.044413	0.007897	0.004078	0.003191	0.104772	0	0.001822	0.016152	0.016646	0.004383
2.992	0.136209	0.079664	0	0	0.114465	0.037926	0.044712	0.007854	0.004116	0.003208	0.107112	0	0.001865	0.015788	0.016929	0.0044
2.9925	0.138649	0.081283	0	0	0.115117	0.038367	0.04501	0.00781	0.004154	0.003228	0.109495	0	0.001909	0.015429	0.017212	0.004417
2.993	0.141113	0.082918	0	0	0.115751	0.038808	0.045307	0.007768	0.004193	0.003249	0.111923	0	0.001953	0.015074	0.017497	0.004433
2.9935	0.1436	0.084569	0	0	0.116368	0.039248	0.045603	0.007726	0.004233	0.003271	0.114394	0	0.001997	0.014724	0.017782	0.004448
2.994	0.146109	0.086235	0	0	0.116965	0.039686	0.045897	0.007684	0.004272	0.003295	0.116909	0	0.002042	0.014379	0.018067	0.004462
2.9945	0.14864	0.087916	0	0	0.117544	0.040123	0.046189	0.007644	0.004312	0.003321	0.119467	0	0.002086	0.014039	0.018353	0.004475
2.995	0.151191	0.089612	0	0	0.118104	0.040559	0.046479	0.007604	0.004353	0.003348	0.122068	0	0.002131	0.013703	0.018639	0.004488
2.9955	0.153763	0.091322	0	0	0.118644	0.040993	0.046765	0.007564	0.004393	0.003377	0.124712	0	0.002175	0.013373	0.018926	0.0045
2.996	0.156354	0.093046	0	0	0.119164	0.041425	0.047048	0.007526	0.004434	0.003407	0.127399	0	0.00222	0.013047	0.019212	0.004511
2.9965	0.158964	0.094783	0	0	0.119663	0.041855	0.047328	0.007488	0.004475	0.003439	0.130127	0	0.002264	0.012727	0.019498	0.004521
2.997	0.161592	0.096534	0	0	0.120141	0.042282	0.047603	0.007451	0.004516	0.003471	0.132898	0	0.002309	0.012411	0.019783	0.00453
2.9975	0.164237	0.098297	0	0	0.120597	0.042707	0.047875	0.007415	0.004557	0.003505	0.13571	0	0.002353	0.012101	0.020068	0.004539
2.998	0.166898	0.100073	0	0	0.121031	0.04313	0.048141	0.00738	0.004599	0.003541	0.138562	0	0.002397	0.011796	0.020352	0.004547
2.9985	0.169576	0.101861	0	0	0.121442	0.043549	0.048403	0.007346	0.004641	0.003577	0.141456	0	0.002441	0.011497	0.020635	0.004553
2.999	0.172269	0.103661	0	0	0.121831	0.043965	0.04866	0.007313	0.004682	0.003615	0.14439	0	0.002485	0.011204	0.020918	0.004559
2.9995	0.174976	0.105473	0	0	0.122196	0.044377	0.048911	0.007281	0.004724	0.003654	0.147363	0	0.002528	0.010917	0.021198	0.004564
3	0.177697	0.107295	0	0	0.122538	0.044786	0.049157	0.00725	0.004766	0.003694	0.150376	0	0.002572	0.010635	0.021478	0.004568
3.0005	0.180432	0.109129	0	0	0.122856	0.04519	0.049397	0.00722	0.004808	0.003735	0.153428	0	0.002615	0.01036	0.021756	0.004571
3.001	0.183179	0.110972	0	0	0.12315	0.04559	0.049631	0.007191	0.00485	0.003777	0.156519	0	0.002657	0.010092	0.022032	0.004573
3.0015	0.185938	0.112825	0	0	0.12342	0.045986	0.049859	0.007163	0.004892	0.00382	0.159647	0	0.002699	0.00983	0.022306	0.004574
3.002	0.188708	0.114687	0	0	0.123666	0.046377	0.05008	0.007136	0.004934	0.003864	0.162813	0	0.002741	0.009575	0.022578	0.004574
3.0025	0.191489	0.116559	0	0	0.123888	0.046762	0.050295	0.00711	0.004975	0.003909	0.166015	0	0.002783	0.009327	0.022847	0.004573
3.003	0.194279	0.118438	0	0	0.124085	0.047142	0.050504	0.007086	0.005017	0.003955	0.169254	0	0.002823	0.009086	0.023114	0.004571
3.0035	0.197079	0.120326	0	0	0.124258	0.047516	0.050705	0.007062	0.005059	0.004002	0.172528	0	0.002864	0.008854	0.023378	0.004568
3.004	0.199887	0.122221	0	0	0.124406	0.047884	0.050899	0.00704	0.0051	0.00405	0.175838	0	0.002904	0.008629	0.023639	0.004564
3.0045	0.202703	0.124123	0	0	0.12453	0.048245	0.051086	0.007019	0.005141	0.004098	0.179181	0	0.002943	0.008412	0.023897	0.004559
3.005	0.205526	0.126032	0	0	0.124629	0.0486	0.051266	0.006999	0.005182	0.004147	0.182559	0	0.002982	0.008205	0.024152	0.004552
3.0055	0.208355	0.127948	0	0	0.124704	0.048948	0.051438	0.006981	0.005223	0.004197	0.185969	0	0.00302	0.008006	0.024403	0.004545
3.006	0.211189	0.129869	0	0	0.124755	0.049288	0.051602	0.006964	0.005263	0.004248	0.189413	0	0.003057	0.007816	0.024651	0.004536
3.0065	0.214028	0.131796	0	0	0.12478	0.049621	0.051759	0.006948	0.005304	0.0043	0.192888	0	0.003094	0.007636	0.024895	0.004527
3.007	0.21687	0.133728	0	0	0.124781	0.049947	0.051908	0.006934	0.005344	0.004352	0.196394	0	0.00313	0.007465	0.025135	0.004516
3.0075	0.219716	0.135665	0	0	0.124757	0.050264	0.052049	0.006921	0.005384	0.004405	0.19993	0	0.003166	0.007305	0.02537	0.004504
3.008	0.222563	0.137606	0	0	0.124709	0.050572	0.052182	0.006909	0.005423	0.004459	0.203496	0	0.003201	0.007155	0.025602	0.004491
3.0085	0.225412	0.139552	0	0	0.124635	0.050872	0.052308	0.006898	0.005462	0.004513	0.207091	0	0.003235	0.007017	0.025828	0.004476
3.009	0.228261	0.141502	0	0	0.124536	0.051163	0.052426	0.006889	0.005501	0.004569	0.210713	0	0.003268	0.006889	0.02605	0.00446
3.0095	0.231111	0.143455	0	0	0.124413	0.051444	0.052536	0.006882	0.005539	0.004624	0.214362	0	0.0033	0.006772	0.026267	0.004443
3.01	0.233962	0.145411	0	0	0.124265	0.051716	0.052639	0.006876	0.005577	0.004681	0.218037	0	0.003332	0.006668	0.026479	0.004425
3.0105	0.236811	0.14737	0	0	0.124092	0.051978	0.052735	0.006871	0.005615	0.004738	0.221737	0	0.003363	0.006575	0.026686	0.004406
3.011	0.23966	0.149331	0	0.000123	0.123895	0.052229	0.052823	0.006868	0.005652	0.004795	0.22546	0	0.003393	0.006495	0.026887	0.004385
3.0115	0.242506	0.151295	0	0.000327	0.123674	0.05247	0.052904	0.006867	0.005689	0.004853	0.229206	0	0.003422	0.006427	0.027083	0.004363
3.012	0.245351	0.15326	0	0.00054	0.12343	0.052699	0.052978	0.006866	0.005725	0.004912	0.232974	0	0.003451	0.006373	0.027272	0.004339
3.0125	0.248193	0.155227	0	0.000762	0.123163	0.052917	0.053045	0.006868	0.005761	0.004971	0.236761	0	0.003478	0.006332	0.027456	0.004315
3.013	0.251032	0.157194	0	0.000994	0.122873	0.053124	0.053105	0.006871	0.005797	0.00503	0.240568	0	0.003505	0.006304	0.027633	0.004289
3.0135	0.253866	0.159163	0	0.001235	0.122562	0.053318	0.053158	0.006875	0.005832	0.00509	0.244393	0	0.00353	0.006291	0.027804	0.004261
3.014	0.256696	0.161132	0	0.001486	0.122228	0.053501	0.053204	0.006881	0.005866	0.005151	0.248236	0	0.003555	0.006292	0.027968	0.004233
3.0145	0.259521	0.163101	0	0.001747	0.121874	0.053671	0.053244	0.006889	0.0059	0.005212	0.252095	0	0.003579	0.006308	0.028126	0.004202
3.015	0.262339	0.165069	0	0.002019	0.121499	0.053828	0.053277	0.006898	0.005934	0.005273	0.255969	0	0.003602	0.006338	0.028277	0.004171
3.0155	0.265151	0.167036	0	0.0023	0.121104	0.053973	0.053303	0.006909	0.005966	0.005335	0.259858	0	0.003624	0.006384	0.02842	0.004138
3.016	0.267955	0.169003	0	0.002592	0.12069	0.054104	0.053324	0.006922	0.005999	0.005397	0.263761	0	0.003645	0.006446	0.028557	0.004104
3.0165	0.270751	0.170968	0	0.002895	0.120255	0.054223	0.053337	0.006936	0.006031	0.005459	0.267677	0	0.003664	0.006523	0.028687	0.004069
3.017	0.273537	0.172931	0	0.003209	0.119803	0.054328	0.053345	0.006952	0.006062	0.005521	0.271606	0	0.003683	0.006617	0.02881	0.004032
3.0175	0.276314	0.174893	0	0.003535	0.119331	0.05442	0.053346	0.00697	0.006092	0.005584	0.275547	8.9e-05	0.003701	0.006727	0.028926	0.003994
3.018	0.279081	0.176852	0	0.003871	0.118842	0.054499	0.053342	0.00699	0.006122	0.005647	0.279501	0.000229	0.003718	0.006855	0.029035	0.003954
3.0185	0.281837	0.17881	0	0.00422	0.118335	0.054564	0.053331	0.007011	0.006152	0.005711	0.283465	0.000375	0.003733	0.006999	0.029137	0.003913
3.019	0.284581	0.180765	0	0.00458	0.117811	0.054615	0.053316	0.007035	0.006181	0.005774	0.28744	0.000528	0.003748	0.007161	0.029231	0.003871
3.0195	0.287315	0.182718	0	0.004952	0.117271	0.054653	0.053294	0.007061	0.006209	0.005838	0.291426	0.000688	0.003762	0.007342	0.029318	0.003827
3.02	0.290037	0.184669	0	0.005337	0.116715	0.054678	0.053268	0.007088	0.006236	0.005901	0.29542	0.000855	0.003774	0.00754	0.029399	0.003782
3.0205	0.292747	0.186617	0	0.005734	0.116143	0.054689	0.053237	0.007118	0.006263	0.005965	0.299423	0.001029	0.003785	0.007757	0.029472	0.003735
3.021	0.295445	0.188564	0	0.006144	0.115556	0.054686	0.0532	0.00715	0.006289	0.006029	0.303434	0.001211	0.003796	0.007993	0.029538	0.003687
3.0215	0.298131	0.19051	0	0.006566	0.114955	0.054669	0.05316	0.007185	0.006314	0.006093	0.307453	0.0014	0.003805	0.008248	0.029597	0.003638
3.022	0.300805	0.192454	0	0.007002	0.11434	0.054639	0.053114	0.007221	0.006338	0.006157	0.311481	0.001596	0.003813	0.008523	0.029649	0.003587
3.0225	0.303466	0.194398	0	0.007452	0.113711	0.054596	0.053065	0.00726	0.006362	0.006221	0.315517	0.0018	0.00382	0.008817	0.029694	0.003535
3.023	0.306115	0.196342	0	0.007915	0.11307	0.05454	0.053011	0.007302	0.006385	0.006285	0.319561	0.002013	0.003826	0.009132	0.029731	0.003481
3.0235	0.308751	0.198286	0	0.008391	0.112416	0.054471	0.052953	0.007346	0.006407	0.006348	0.323613	0.002233	0.003831	0.009468	0.029763	0.003426
3.024	0.311375	0.200232	0	0.008882	0.11175	0.05439	0.052892	0.007393	0.006428	0.006412	0.327675	0.002462	0.003834	0.009824	0.029787	0.003369
3.0245	0.313987	0.202178	0	0.009387	0.111072	0.054296	0.052827	0.007443	0.006449	0.006475	0.331746	0.002699	0.003836	0.010202	0.029804	0.003311
3.025	0.316587	0.204127	0	0.009907	0.110384	0.05419	0.052758	0.007495	0.006469	0.006539	0.335827	0.002945	0.003838	0.010602	0.029815	0.003252
3.0255	0.319175	0.206078	0	0.010441	0.109685	0.054073	0.052686	0.007551	0.006487	0.006602	0.339918	0.0032	0.003838	0.011023	0.029819	0.003191
3.026	0.321751	0.208033	1.6e-05	0.010991	0.108976	0.053944	0.052611	0.007609	0.006505	0.006666	0.34402	0.003463	0.003837	0.011467	0.029816	0.003129
3.0265	0.324315	0.209992	0.000153	0.011555	0.108257	0.053803	0.052533	0.007671	0.006522	0.006729	0.348133	0.003736	0.003834	0.011934	0.029806	0.003066
3.027	0.326868	0.211955	0.000297	0.012135	0.107529	0.053652	0.052452	0.007735	0.006539	0.006792	0.352257	0.004018	0.003831	0.012423	0.02979	0.003001
3.0275	0.32941	0.213923	0.000448	0.01273	0.106792	0.05349	0.052369	0.007803	0.006554	0.006854	0.356394	0.00431	0.003826	0.012936	0.029768	0.002935
3.028	0.331941	0.215896	0.000606	0.013342	0.106047	0.053317	0.052284	0.007874	0.006569	0.006917	0.360542	0.004612	0.00382	0.013472	0.029739	0.002868
3.0285	0.334462	0.217875	0.000772	0.013969	0.105295	0.053134	0.052196	0.007948	0.006582	0.00698	0.364702	0.004923	0.003812	0.014032	0.029703	0.002799
3.029	0.336973	0.219861	0.000945	0.014612	0.104536	0.05294	0.052106	0.008026	0.006595	0.007042	0.368875	0.005244	0.003804	0.014617	0.029662	0.00273
3.0295	0.339475	0.221854	0.001126	0.015272	0.103771	0.052737	0.052014	0.008107	0.006608	0.007105	0.373061	0.005576	0.003794	0.015226	0.029614	0.002659
3.03	0.341969	0.223853	0.001315	0.015949	0.103001	0.052525	0.051921	0.008192	0.006619	0.007167	0.377261	0.005918	0.003782	0.01586	0.02956	0.002587
3.0305	0.344454	0.225861	0.001513	0.016642	0.102226	0.052303	0.051826	0.00828	0.00663	0.007229	0.381475	0.006271	0.00377	0.016519	0.029499	0.002514
3.031	0.346931	0.227876	0.001718	0.017352	0.101448	0.052071	0.05173	0.008373	0.006639	0.007291	0.385704	0.006635	0.003755	0.017203	0.029433	0.00244
3.0315	0.3494	0.229899	0.001932	0.01808	0.100667	0.051831	0.051632	0.008469	0.006648	0.007353	0.389948	0.007009	0.00374	0.017914	0.02936	0.002364
3.032	0.351862	0.231931	0.002155	0.018825	0.099884	0.051582	0.051534	0.008568	0.006657	0.007415	0.394208	0.007395	0.003723	0.01865	0.029282	0.002288
3.0325	0.354317	0.233972	0.002387	0.019588	0.0991	0.051325	0.051434	0.008672	0.006664	0.007477	0.398485	0.007792	0.003705	0.019413	0.029198	0.002211
3.033	0.356765	0.236021	0.002628	0.020368	0.098315	0.05106	0.051334	0.00878	0.006671	0.007538	0.402779	0.0082	0.003685	0.020203	0.029108	0.002132
3.0335	0.359206	0.238079	0.002878	0.021166	0.09753	0.050787	0.051234	0.008892	0.006677	0.0076	0.407091	0.00862	0.003664	0.02102	0.029013	0.002053
3.034	0.36164	0.240147	0.003137	0.021983	0.096747	0.050507	0.051133	0.009008	0.006683	0.007661	0.411423	0.009052	0.003642	0.021863	0.028913	0.001973
3.0345	0.364067	0.242224	0.003407	0.022818	0.095965	0.050219	0.051032	0.009128	0.006687	0.007722	0.415776	0.009496	0.003617	0.022735	0.028807	0.001892
3.035	0.366487	0.24431	0.003686	0.023671	0.095185	0.049925	0.050931	0.009252	0.006691	0.007784	0.420149	0.009953	0.003592	0.023634	0.028697	0.001809
3.0355	0.3689	0.246406	0.003974	0.024543	0.094409	0.049624	0.05083	0.009381	0.006694	0.007845	0.424543	0.010421	0.003564	0.024562	0.028581	0.001726
3.036	0.371305	0.248511	0.004274	0.025434	0.093635	0.049317	0.05073	0.009514	0.006697	0.007906	0.428961	0.010902	0.003536	0.025518	0.028462	0.001643
3.0365	0.373702	0.250626	0.004583	0.026344	0.092867	0.049005	0.05063	0.009652	0.006699	0.007967	0.433402	0.011396	0.003505	0.026502	0.028337	0.001558
3.037	0.376092	0.252751	0.004903	0.027273	0.092103	0.048686	0.05053	0.009794	0.0067	0.008027	0.437867	0.011903	0.003473	0.027516	0.028209	0.001472
3.0375	0.378474	0.254885	0.005234	0.028221	0.091344	0.048362	0.050432	0.009941	0.0067	0.008088	0.442359	0.012422	0.00344	0.028558	0.028076	0.001386
3.038	0.380849	0.257029	0.005576	0.029189	0.090591	0.048033	0.050335	0.010092	0.0067	0.008149	0.446877	0.012955	0.003404	0.02963	0.027939	0.001299
3.0385	0.383217	0.259184	0.005929	0.030176	0.089846	0.0477	0.05024	0.010248	0.006699	0.008209	0.451422	0.013501	0.003367	0.030732	0.027799	0.001212
3.039	0.385577	0.261348	0.006293	0.031182	0.089107	0.047362	0.050146	0.010409	0.006698	0.008269	0.455997	0.01406	0.003329	0.031864	0.027655	0.001124
3.0395	0.387931	0.263523	0.006669	0.032209	0.088376	0.04702	0.050054	0.010574	0.006696	0.00833	0.460601	0.014633	0.003288	0.033025	0.027508	0.001035
3.04	0.390279	0.265709	0.007057	0.033255	0.087653	0.046673	0.049964	0.010745	0.006694	0.00839	0.465237	0.01522	0.003246	0.034217	0.027358	0.000945
3.0405	0.39262	0.267907	0.007456	0.034321	0.086939	0.046323	0.049876	0.01092	0.006691	0.00845	0.469906	0.015821	0.003202	0.03544	0.027205	0.000856
3.041	0.394956	0.270116	0.007868	0.035407	0.086234	0.04597	0.049791	0.011101	0.006688	0.008509	0.474608	0.016435	0.003157	0.036693	0.027049	0.000765
3.0415	0.397286	0.272337	0.008291	0.036513	0.085538	0.045613	0.049709	0.011286	0.006684	0.008569	0.479345	0.017064	0.00311	0.037977	0.026891	0.000674
3.042	0.399609	0.274571	0.008728	0.037639	0.084853	0.045253	0.049629	0.011477	0.006679	0.008628	0.484118	0.017707	0.003061	0.039292	0.02673	0.000583
3.0425	0.401927	0.276816	0.009177	0.038785	0.084178	0.04489	0.049553	0.011673	0.006674	0.008688	0.488928	0.018365	0.00301	0.040638	0.026567	0.000492
3.043	0.404239	0.279074	0.009639	0.039951	0.083514	0.044525	0.049479	0.011874	0.006669	0.008747	0.493776	0.019037	0.002958	0.042016	0.026403	0.000401
3.0435	0.406545	0.281345	0.010114	0.041138	0.082861	0.044157	0.049409	0.01208	0.006663	0.008805	0.498663	0.019724	0.002904	0.043425	0.026236	0.000309
3.044	0.408845	0.283627	0.010602	0.042345	0.08222	0.043786	0.049342	0.012292	0.006657	0.008864	0.503589	0.020426	0.002848	0.044865	0.026068	0.000217
3.0445	0.411139	0.285922	0.011104	0.043572	0.081592	0.043414	0.049279	0.01251	0.00665	0.008922	0.508555	0.021143	0.002791	0.046338	0.025899	0.000126
3.045	0.413426	0.288229	0.011619	0.04482	0.080976	0.043039	0.04922	0.012732	0.006643	0.00898	0.513563	0.021875	0.002732	0.047842	0.025729	3.4e-05
3.0455	0.415708	0.290549	0.012149	0.046088	0.080374	0.042663	0.049164	0.012961	0.006635	0.009038	0.518614	0.022622	0.002671	0.049378	0.025557	0
3.046	0.417984	0.29288	0.012692	0.047376	0.079785	0.042284	0.049113	0.013195	0.006627	0.009095	0.523708	0.023384	0.002609	0.050946	0.025385	0
3.0465	0.420253	0.295222	0.01325	0.048684	0.079211	0.041905	0.049065	0.013434	0.006619	0.009152	0.528846	0.024161	0.002545	0.052546	0.025213	0
3.047	0.422516	0.297576	0.013821	0.050013	0.078651	0.041524	0.049023	0.01368	0.00661	0.009209	0.53403	0.024954	0.002479	0.054178	0.025039	0
3.0475	0.424772	0.29994	0.014408	0.051362	0.078108	0.041142	0.048984	0.013931	0.0066	0.009265	0.53926	0.025762	0.002412	0.055842	0.024866	0
3.048	0.427022	0.302315	0.015009	0.052731	0.07758	0.040759	0.048951	0.014187	0.006591	0.009322	0.544537	0.026586	0.002343	0.057539	0.024692	0
3.0485	0.429264	0.304699	0.015626	0.05412	0.077069	0.040376	0.048922	0.01445	0.00658	0.009377	0.549861	0.027425	0.002273	0.059267	0.024518	0
3.049	0.4315	0.307094	0.016257	0.05553	0.076576	0.039992	0.048899	0.014719	0.00657	0.009433	0.555234	0.028281	0.0022	0.061028	0.024345	0
3.0495	0.433729	0.309497	0.016904	0.056959	0.076101	0.039609	0.04888	0.014994	0.006558	0.009488	0.560656	0.029151	0.002127	0.062821	0.024171	0
3.05	0.435951	0.311911	0.017566	0.058408	0.075645	0.039226	0.048868	0.015274	0.006547	0.009542	0.566128	0.030038	0.002052	0.064646	0.023998	0
3.0505	0.438166	0.314333	0.018244	0.059877	0.075209	0.038844	0.04886	0.015561	0.006535	0.009597	0.571652	0.03094	0.001975	0.066503	0.023826	0
3.051	0.440374	0.316765	0.018938	0.061366	0.074792	0.038463	0.048859	0.015855	0.006522	0.00965	0.577228	0.031859	0.001896	0.068393	0.023655	0
3.0515	0.442576	0.319207	0.019648	0.062874	0.074396	0.038084	0.048864	0.016154	0.00651	0.009704	0.582856	0.032793	0.001816	0.070314	0.023484	0
3.052	0.44477	0.321659	0.020374	0.064402	0.074022	0.037706	0.048875	0.01646	0.006496	0.009757	0.588539	0.033743	0.001735	0.072267	0.023314	0
3.0525	0.446957	0.324121	0.021117	0.06595	0.073669	0.037331	0.048892	0.016772	0.006483	0.009809	0.594276	0.034709	0.001652	0.074253	0.023146	0
3.053	0.449137	0.326594	0.021876	0.067516	0.073339	0.036959	0.048916	0.017091	0.006469	0.009862	0.600068	0.035691	0.001568	0.07627	0.022979	0
3.0535	0.45131	0.329077	0.022652	0.069101	0.073032	0.036589	0.048946	0.017416	0.006454	0.009913	0.605917	0.036689	0.001482	0.078318	0.022814	0
3.054	0.453474	0.331571	0.023445	0.070706	0.072748	0.036223	0.048983	0.017748	0.00644	0.009964	0.611823	0.037703	0.001394	0.080398	0.02265	0
3.0545	0.455631	0.334075	0.024255	0.072329	0.072489	0.035861	0.049027	0.018087	0.006424	0.010015	0.617786	0.038733	0.001306	0.082509	0.022487	0
3.055	0.457781	0.33659	0.025082	0.07397	0.072254	0.035503	0.049078	0.018432	0.006409	0.010065	0.623808	0.039779	0.001215	0.084651	0.022327	0
3.0555	0.459921	0.339117	0.025926	0.07563	0.072045	0.035149	0.049137	0.018785	0.006393	0.010115	0.629888	0.04084	0.001124	0.086823	0.022169	0
3.056	0.462053	0.341654	0.026788	0.077307	0.071862	0.034801	0.049203	0.019144	0.006377	0.010164	0.636027	0.041918	0.001031	0.089027	0.022013	0
3.0565	0.464177	0.344202	0.027667	0.079003	0.071706	0.034459	0.049276	0.019509	0.006361	0.010213	0.642225	0.043011	0.000937	0.09126	0.021859	0
3.057	0.46629	0.346761	0.028564	0.080716	0.071577	0.034123	0.049357	0.019882	0.006345	0.010261	0.648481	0.044121	0.000841	0.093523	0.021708	0
3.0575	0.468394	0.349332	0.029479	0.082447	0.071477	0.033793	0.049446	0.020262	0.006328	0.010309	0.654795	0.045245	0.000744	0.095816	0.02156	0
3.058	0.470488	0.351914	0.030412	0.084195	0.071405	0.033471	0.049543	0.020648	0.006311	0.010356	0.661168	0.046386	0.000646	0.098138	0.021414	0
3.0585	0.472571	0.354506	0.031363	0.08596	0.071364	0.033157	0.049648	0.021042	0.006294	0.010402	0.667598	0.047541	0.000547	0.10049	0.021272	0
3.059	0.474644	0.357111	0.032332	0.087743	0.071353	0.032851	0.049761	0.021443	0.006276	0.010448	0.674085	0.048712	0.000447	0.10287	0.021133	0
3.0595	0.476704	0.359728	0.033319	0.089542	0.071373	0.032555	0.049882	0.02185	0.006259	0.010494	0.68063	0.049899	0.000345	0.105278	0.020997	0
3.06	0.478752	0.362357	0.034325	0.091357	0.071425	0.032268	0.050012	0.022265	0.006241	0.010539	0.687232	0.0511	0.000242	0.107714	0.020865	0
3.0605	0.480788	0.365	0.035349	0.093189	0.071511	0.031991	0.05015	0.022687	0.006223	0.010583	0.693891	0.052316	0.000138	0.110177	0.020736	0
3.061	0.48281	0.367657	0.036391	0.095038	0.07163	0.031725	0.050297	0.023115	0.006206	0.010627	0.700607	0.053547	3.4e-05	0.112667	0.020611	0
3.0615	0.484818	0.370329	0.037452	0.096902	0.071784	0.031471	0.050452	0.023551	0.006188	0.010669	0.707379	0.054792	0	0.115184	0.02049	0
3.062	0.486813	0.373016	0.038532	0.098782	0.071973	0.031228	0.050616	0.023994	0.00617	0.010712	0.714207	0.056052	0	0.117727	0.020374	0
3.0625	0.488795	0.37572	0.039631	0.100678	0.072198	0.030998	0.050789	0.024444	0.006152	0.010753	0.721092	0.057326	0	0.120296	0.020262	0
3.063	0.490762	0.378439	0.040748	0.10259	0.07246	0.03078	0.050971	0.024901	0.006134	0.010794	0.728032	0.058614	0	0.12289	0.020154	0
3.0635	0.492717	0.381176	0.041885	0.104518	0.07276	0.030576	0.051162	0.025366	0.006116	0.010834	0.735029	0.059915	0	0.125508	0.020052	0
3.064	0.494658	0.383929	0.04304	0.106461	0.073098	0.030386	0.051361	0.025837	0.006098	0.010873	0.742082	0.061231	0	0.128151	0.019954	0
3.0645	0.496587	0.3867	0.044214	0.108419	0.073475	0.03021	0.05157	0.026315	0.006081	0.010912	0.74919	0.062559	0	0.130817	0.019862	0
3.065	0.498503	0.389488	0.045407	0.110394	0.073892	0.03005	0.051787	0.026801	0.006063	0.010949	0.756355	0.063902	0	0.133506	0.019775	0
3.0655	0.500406	0.392293	0.046619	0.112384	0.074349	0.029904	0.052014	0.027293	0.006046	0.010986	0.763576	0.065257	0	0.136218	0.019694	0
3.066	0.502298	0.395116	0.04785	0.11439	0.074848	0.029775	0.052249	0.027793	0.006029	0.011022	0.770853	0.066626	0	0.138951	0.019618	0
3.0665	0.504177	0.397956	0.049099	0.116411	0.075388	0.029662	0.052494	0.028299	0.006012	0.011056	0.778184	0.068007	0	0.141705	0.019549	0
3.067	0.506043	0.400813	0.050368	0.118447	0.075971	0.029566	0.052747	0.028813	0.005995	0.01109	0.78557	0.069401	0	0.14448	0.019485	0
3.0675	0.507898	0.403688	0.051656	0.120499	0.076598	0.029487	0.053009	0.029334	0.005979	0.011123	0.793009	0.070808	0	0.147274	0.019429	0
3.068	0.509739	0.406579	0.052963	0.122566	0.077268	0.029426	0.05328	0.029861	0.005963	0.011155	0.8005	0.072228	0	0.150087	0.019378	0
3.0685	0.511568	0.409487	0.054289	0.124649	0.077983	0.029384	0.05356	0.030396	0.005948	0.011185	0.808042	0.073659	0	0.152918	0.019335	0
3.069	0.513383	0.412411	0.055633	0.126747	0.078744	0.029361	0.053848	0.030938	0.005933	0.011215	0.815634	0.075103	0	0.155767	0.019299	0
3.0695	0.515183	0.415351	0.056997	0.12886	0.079551	0.029357	0.054145	0.031486	0.005918	0.011244	0.823273	0.076559	0	0.158632	0.019269	0
3.07	0.516969	0.418306	0.058379	0.130989	0.080404	0.029373	0.054451	0.032042	0.005905	0.011271	0.830958	0.078027	0	0.161513	0.019248	0
3.0705	0.518739	0.421274	0.05978	0.133133	0.081306	0.029411	0.054764	0.032604	0.005892	0.011297	0.838685	0.079506	0	0.16441	0.019234	0
3.071	0.520493	0.424256	0.0612	0.135293	0.082255	0.02947	0.055086	0.033174	0.005879	0.011322	0.846454	0.080997	0	0.16732	0.019227	0
3.0715	0.522231	0.42725	0.062638	0.137469	0.083253	0.029551	0.055417	0.03375	0.005868	0.011345	0.85426	0.082499	0	0.170245	0.019229	0
3.072	0.523953	0.430255	0.064095	0.139661	0.084301	0.029655	0.055755	0.034334	0.005857	0.011368	0.862101	0.084012	0	0.173182	0.01924	0
3.0725	0.525659	0.43327	0.065571	0.141869	0.085398	0.029782	0.056101	0.034925	0.005847	0.011389	0.869974	0.085537	0	0.176131	0.019258	0
3.073	0.527348	0.436294	0.067065	0.144093	0.086547	0.029933	0.056454	0.035523	0.005839	0.011409	0.877876	0.087072	0	0.17909	0.019286	0
3.0735	0.529021	0.439324	0.068577	0.146334	0.087746	0.030109	0.056816	0.036129	0.005831	0.011427	0.885802	0.088618	0	0.18206	0.019323	0
3.074	0.530678	0.442361	0.070108	0.148591	0.088997	0.030311	0.057185	0.036743	0.005824	0.011444	0.893751	0.090174	0	0.18504	0.019368	0
3.0745	0.532321	0.445401	0.071657	0.150865	0.0903	0.030538	0.057561	0.037364	0.005819	0.01146	0.901718	0.091741	0	0.188027	0.019424	3.5e-05
3.075	0.533948	0.448444	0.073224	0.153155	0.091656	0.030791	0.057944	0.037993	0.005815	0.011474	0.909702	0.093317	0	0.191022	0.019488	0.000247
3.0755	0.535562	0.451487	0.074809	0.155461	0.093065	0.031072	0.058334	0.038631	0.005812	0.011487	0.917698	0.094903	0	0.194024	0.019563	0.000471
3.076	0.537163	0.454528	0.076411	0.157784	0.094528	0.031381	0.05873	0.039277	0.00581	0.011498	0.925706	0.096499	0	0.197031	0.019648	0.000709
3.0765	0.53875	0.457567	0.078032	0.160122	0.096045	0.031717	0.059134	0.039932	0.00581	0.011508	0.933722	0.098104	0	0.200043	0.019743	0.000959
3.077	0.540326	0.4606	0.07967	0.162477	0.097616	0.032083	0.059543	0.040597	0.005812	0.011516	0.941744	0.099717	0	0.203058	0.019848	0.001222
3.0775	0.541889	0.463625	0.081325	0.164846	0.099243	0.032478	0.059958	0.041271	0.005815	0.011522	0.949768	0.101339	0	0.206075	0.019964	0.001499
3.078	0.543441	0.466641	0.082998	0.167231	0.100925	0.032904	0.06038	0.041955	0.00582	0.011527	0.957793	0.10297	0	0.209093	0.020091	0.00179
3.0785	0.544981	0.469646	0.084688	0.169631	0.102664	0.03336	0.060806	0.042648	0.005826	0.011531	0.965815	0.104609	0	0.212112	0.020229	0.002095
3.079	0.54651	0.472637	0.086394	0.172046	0.104458	0.033847	0.061238	0.043352	0.005835	0.011533	0.973832	0.106256	0	0.215128	0.020378	0.002414
3.0795	0.548027	0.475612	0.088118	0.174475	0.10631	0.034366	0.061674	0.044067	0.005845	0.011534	0.981839	0.107911	0	0.218143	0.020538	0.002749
3.08	0.549532	0.478569	0.089858	0.176917	0.108218	0.034918	0.062115	0.044793	0.005857	0.011533	0.989835	0.109574	0	0.221153	0.02071	0.003099
3.0805	0.551025	0.481506	0.091614	0.179373	0.110185	0.035503	0.062561	0.045529	0.005872	0.01153	0.997816	0.111245	0	0.224157	0.020894	0.003464
3.081	0.552504	0.48442	0.093387	0.181843	0.112209	0.036121	0.06301	0.046277	0.005888	0.011526	1.005778	0.112923	0	0.227155	0.02109	0.003845
3.0815	0.553971	0.487309	0.095175	0.184325	0.114291	0.036774	0.063463	0.047037	0.005907	0.01152	1.013719	0.114608	0	0.230146	0.021298	0.004243
3.082	0.555424	0.490171	0.096979	0.18682	0.116433	0.037461	0.063919	0.047809	0.005928	0.011514	1.021636	0.1163	0	0.233127	0.021519	0.004657
3.0825	0.556861	0.493003	0.098799	0.189328	0.118633	0.038183	0.064378	0.048593	0.005952	0.011505	1.029524	0.118	0	0.236097	0.021752	0.005088
3.083	0.558284	0.495803	0.100635	0.191848	0.120892	0.038942	0.064839	0.049391	0.005978	0.011495	1.03738	0.119707	0	0.239057	0.021998	0.005536
3.0835	0.559689	0.498568	0.102485	0.19438	0.123211	0.039736	0.065302	0.050201	0.006006	0.011484	1.045201	0.121421	0	0.242004	0.022256	0.006003
3.084	0.561076	0.501296	0.104352	0.196924	0.125589	0.040568	0.065767	0.051025	0.006038	0.011471	1.052983	0.123141	0	0.244937	0.022528	0.006487
3.0845	0.562444	0.503984	0.106233	0.19948	0.128028	0.041437	0.066233	0.051862	0.006072	0.011457	1.060722	0.12487	0	0.247855	0.022812	0.00699
3.085	0.563791	0.506629	0.108129	0.202048	0.130526	0.042344	0.066699	0.052714	0.006109	0.011441	1.068415	0.126606	0	0.250758	0.023111	0.007512
3.0855	0.565116	0.509229	0.11004	0.204627	0.133085	0.04329	0.067167	0.05358	0.006148	0.011424	1.076056	0.128351	0	0.253645	0.023422	0.008053
3.086	0.566418	0.51178	0.111966	0.207217	0.135704	0.044275	0.067634	0.054461	0.006191	0.011406	1.083642	0.130104	0	0.256513	0.023748	0.008613
3.0865	0.567695	0.51428	0.113908	0.209818	0.138384	0.045299	0.0681	0.055357	0.006237	0.011386	1.091167	0.131867	0	0.259363	0.024087	0.009194
3.087	0.568945	0.516724	0.115864	0.21243	0.141124	0.046364	0.068566	0.056269	0.006286	0.011364	1.098628	0.13364	0	0.262194	0.024441	0.009794
3.0875	0.570166	0.51911	0.117836	0.215054	0.143925	0.04747	0.069031	0.057196	0.006338	0.011341	1.10602	0.135424	0	0.265003	0.024809	0.010415
3.088	0.571359	0.521435	0.119822	0.217688	0.146787	0.048616	0.069494	0.05814	0.006393	0.011317	1.113336	0.137219	0	0.26779	0.025192	0.011058
3.0885	0.572519	0.523695	0.121824	0.220333	0.149709	0.049805	0.069955	0.0591	0.006452	0.011291	1.120572	0.139027	0	0.270555	0.025589	0.011721
3.089	0.573648	0.525887	0.123842	0.222989	0.152691	0.051036	0.070413	0.060076	0.006515	0.011264	1.127723	0.140847	0	0.273295	0.026002	0.012406
3.0895	0.574742	0.52801	0.125875	0.225656	0.155734	0.052309	0.070869	0.06107	0.006581	0.011235	1.134783	0.14268	0	0.276011	0.026429	0.013114
3.09	0.575801	0.530061	0.127924	0.228333	0.158837	0.053626	0.071321	0.062081	0.006651	0.011205	1.141748	0.144528	0	0.278702	0.026872	0.013843
3.0905	0.576824	0.532037	0.129989	0.23102	0.162001	0.054987	0.07177	0.063109	0.006724	0.011174	1.148611	0.146391	0	0.281365	0.027331	0.014596
3.091	0.577808	0.533936	0.13207	0.233717	0.165225	0.056391	0.072215	0.064156	0.006801	0.011142	1.155367	0.148269	0	0.284001	0.027805	0.015371
3.0915	0.578753	0.535757	0.134168	0.236424	0.168509	0.057841	0.072655	0.06522	0.006882	0.011108	1.162011	0.150164	0	0.286609	0.028296	0.01617
3.092	0.579657	0.537496	0.136281	0.23914	0.171853	0.059335	0.073091	0.066303	0.006968	0.011073	1.168538	0.152077	0	0.289187	0.028802	0.016993
3.0925	0.580519	0.539152	0.138411	0.241866	0.175256	0.060875	0.07352	0.067405	0.007057	0.011036	1.174941	0.154007	0	0.291734	0.029326	0.01784
3.093	0.581337	0.540723	0.140557	0.244602	0.17872	0.062461	0.073944	0.068525	0.00715	0.010999	1.181214	0.155956	0	0.294249	0.029866	0.018712
3.0935	0.582109	0.542208	0.14272	0.247347	0.182242	0.064094	0.074362	0.069665	0.007248	0.010961	1.187352	0.157925	0	0.296731	0.030423	0.019608
3.094	0.582834	0.543604	0.144899	0.250101	0.185824	0.065774	0.074773	0.070824	0.00735	0.010921	1.193347	0.159914	0	0.29918	0.030997	0.02053
3.0945	0.58351	0.54491	0.147095	0.252864	0.189464	0.067502	0.075176	0.072002	0.007456	0.010881	1.199193	0.161923	0	0.301594	0.031589	0.021477
3.095	0.584135	0.546123	0.149307	0.255637	0.193163	0.069278	0.075572	0.073199	0.007567	0.01084	1.204882	0.163954	0	0.303973	0.032198	0.02245
3.0955	0.584706	0.547242	0.151536	0.258419	0.19692	0.071102	0.075959	0.074417	0.007682	0.010798	1.210407	0.166007	0	0.306316	0.032827	0.02345
3.096	0.585223	0.548265	0.153782	0.26121	0.200735	0.072975	0.076339	0.075654	0.007802	0.010755	1.215761	0.168083	0	0.308623	0.033473	0.024476
3.0965	0.585683	0.54919	0.156045	0.264011	0.204606	0.074897	0.07671	0.076911	0.007927	0.010711	1.220935	0.170182	0	0.310893	0.034139	0.025529
3.097	0.586086	0.550017	0.158325	0.26682	0.208535	0.07687	0.077072	0.078188	0.008056	0.010666	1.225922	0.172306	0	0.313125	0.034824	0.02661
3.0975	0.586429	0.550743	0.160622	0.269639	0.212519	0.078892	0.077426	0.079485	0.00819	0.010621	1.230714	0.174455	0	0.315318	0.035529	0.027718
3.098	0.586712	0.55137	0.162937	0.272466	0.216559	0.080965	0.077771	0.080803	0.00833	0.010575	1.235302	0.176629	0	0.317472	0.036254	0.028855
3.0985	0.586934	0.551896	0.16527	0.275302	0.220655	0.083089	0.078108	0.082141	0.008474	0.010528	1.239681	0.178831	0	0.319587	0.036999	0.030019
3.099	0.587094	0.552323	0.167621	0.278147	0.224805	0.085265	0.078437	0.083499	0.008623	0.010481	1.243844	0.181061	0	0.321662	0.037765	0.031213
3.0995	0.587194	0.552649	0.16999	0.281	0.22901	0.087493	0.078757	0.084877	0.008777	0.010433	1.247784	0.183319	0	0.323696	0.038553	0.032436
3.1	0.587231	0.552876	0.172377	0.283861	0.233268	0.089773	0.07907	0.086276	0.008937	0.010384	1.251497	0.185606	0	0.325688	0.039362	0.033688
3.1005	0.587206	0.553003	0.174782	0.28673	0.237579	0.092106	0.079374	0.087696	0.009102	0.010335	1.254977	0.187924	0	0.32764	0.040192	0.03497
3.101	0.587119	0.553031	0.177205	0.289607	0.241941	0.094492	0.079671	0.089137	0.009272	0.010286	1.258219	0.190273	0	0.32955	0.041045	0.036282
3.1015	0.58697	0.55296	0.179647	0.292491	0.246356	0.096932	0.07996	0.090599	0.009447	0.010236	1.26122	0.192653	0	0.331419	0.041921	0.037625
3.102	0.586758	0.552791	0.182107	0.295384	0.250821	0.099427	0.080241	0.092083	0.009628	0.010187	1.263974	0.195066	0	0.333247	0.04282	0.038998
3.1025	0.586484	0.552525	0.184585	0.298284	0.255335	0.101976	0.080516	0.093587	0.009815	0.010137	1.266479	0.197511	0	0.335034	0.043743	0.040402
3.103	0.586148	0.552163	0.187081	0.301193	0.259898	0.104581	0.080784	0.095113	0.010007	0.010086	1.268733	0.19999	0	0.336781	0.04469	0.041838
3.1035	0.585751	0.551705	0.189595	0.304111	0.264509	0.107242	0.081046	0.096662	0.010204	0.010036	1.270733	0.202502	0	0.338487	0.045662	0.043305
3.104	0.585292	0.551153	0.192127	0.307036	0.269166	0.109959	0.081303	0.098232	0.010408	0.009986	1.272479	0.205049	0	0.340154	0.046659	0.044804
3.1045	0.584772	0.550509	0.194677	0.30997	0.273869	0.112733	0.081553	0.099824	0.010617	0.009937	1.27397	0.207631	0	0.341781	0.047681	0.046336
3.105	0.584191	0.549773	0.197244	0.312912	0.278616	0.115564	0.081798	0.10144	0.010832	0.009887	1.275203	0.210248	0	0.343369	0.048729	0.0479
3.1055	0.583548	0.548945	0.19983	0.315862	0.283406	0.118452	0.082039	0.103078	0.011053	0.009838	1.276177	0.212901	0	0.344917	0.049804	0.049496
3.106	0.582845	0.548029	0.202434	0.318822	0.288237	0.121398	0.082275	0.104739	0.01128	0.009789	1.27689	0.21559	0	0.346425	0.050906	0.051126
3.1065	0.582081	0.547025	0.205057	0.32179	0.293109	0.124402	0.082507	0.106424	0.011512	0.00974	1.277341	0.218315	0	0.347894	0.052035	0.052788
3.107	0.581255	0.545935	0.207698	0.324768	0.298021	0.127464	0.082734	0.108133	0.011751	0.009692	1.277528	0.221077	0	0.349324	0.053192	0.054485
3.1075	0.580369	0.544761	0.210359	0.327756	0.30297	0.130585	0.082958	0.109866	0.011996	0.009645	1.27745	0.223876	0.000349	0.350715	0.054378	0.056215
3.108	0.579422	0.543506	0.213038	0.330755	0.307955	0.133765	0.083179	0.111623	0.012247	0.009598	1.277105	0.226713	0.000718	0.352066	0.055592	0.057978
3.1085	0.578414	0.542172	0.215737	0.333765	0.312976	0.137005	0.083396	0.113405	0.012504	0.009552	1.276493	0.229588	0.001102	0.353378	0.056835	0.059776
3.109	0.577346	0.540761	0.218455	0.336788	0.318029	0.140303	0.08361	0.115212	0.012767	0.009506	1.275615	0.232502	0.001501	0.354651	0.058107	0.061608
3.1095	0.576217	0.539275	0.221192	0.339824	0.323115	0.143661	0.083821	0.117045	0.013036	0.009462	1.274469	0.235455	0.001916	0.355885	0.059409	0.063475
3.11	0.575028	0.537718	0.22395	0.342874	0.32823	0.147079	0.08403	0.118903	0.013312	0.009418	1.273058	0.238449	0.002347	0.35708	0.060742	0.065376
3.1105	0.573778	0.536089	0.226728	0.345939	0.333373	0.150557	0.084236	0.120787	0.013594	0.009375	1.271381	0.241483	0.002795	0.358236	0.062104	0.067312
3.111	0.572467	0.534394	0.229527	0.349019	0.338542	0.154095	0.084441	0.122698	0.013882	0.009334	1.269438	0.244558	0.003259	0.359353	0.063498	0.069282
3.1115	0.571097	0.532632	0.232347	0.352115	0.343735	0.157694	0.084643	0.124635	0.014177	0.009293	1.26723	0.247674	0.003739	0.360431	0.064922	0.071287
3.112	0.569668	0.530808	0.235187	0.355228	0.348951	0.161352	0.084845	0.1266	0.014478	0.009253	1.264758	0.250833	0.004237	0.361471	0.066379	0.073328
3.1125	0.56818	0.528924	0.238049	0.358359	0.354186	0.165071	0.085044	0.128591	0.014785	0.009215	1.262024	0.254034	0.004752	0.362471	0.067867	0.075403
3.113	0.566635	0.526982	0.240933	0.361509	0.359439	0.168851	0.085243	0.130611	0.015099	0.009178	1.259029	0.257277	0.005285	0.363431	0.069387	0.077514
3.1135	0.565034	0.524984	0.243838	0.364678	0.364708	0.172691	0.08544	0.132658	0.015419	0.009142	1.255775	0.260564	0.005836	0.364352	0.070939	0.07966
3.114	0.563378	0.522934	0.246765	0.367866	0.36999	0.176592	0.085637	0.134733	0.015746	0.009107	1.252264	0.263895	0.006405	0.365232	0.072524	0.081841
3.1145	0.561667	0.520834	0.249714	0.371075	0.375283	0.180553	0.085833	0.136837	0.016079	0.009074	1.248498	0.267269	0.006993	0.366071	0.074143	0.084057
3.115	0.559903	0.518686	0.252686	0.374306	0.380586	0.184575	0.086029	0.138968	0.016419	0.009042	1.244478	0.270687	0.0076	0.366868	0.075795	0.086309
3.1155	0.558085	0.516493	0.255681	0.37756	0.385896	0.188657	0.086224	0.141128	0.016766	0.009012	1.240206	0.27415	0.008225	0.367623	0.07748	0.088596
3.116	0.556215	0.514256	0.2587	0.380838	0.391211	0.192799	0.08642	0.143317	0.017119	0.008983	1.235685	0.277658	0.00887	0.368335	0.079199	0.090917
3.1165	0.554294	0.511978	0.261742	0.384141	0.396529	0.197001	0.086615	0.145534	0.017479	0.008956	1.230916	0.281211	0.009535	0.369003	0.080953	0.093274
3.117	0.552323	0.50966	0.264808	0.38747	0.401848	0.201263	0.086811	0.147779	0.017845	0.00893	1.225902	0.28481	0.01022	0.369627	0.082741	0.095666
3.1175	0.550303	0.507306	0.267899	0.390826	0.407166	0.205584	0.087006	0.150053	0.018218	0.008906	1.220647	0.288455	0.010925	0.370205	0.084564	0.098093
3.118	0.548235	0.504915	0.271014	0.394209	0.41248	0.209963	0.087202	0.152355	0.018598	0.008884	1.215152	0.292145	0.01165	0.370739	0.086421	0.100554
3.1185	0.546121	0.502491	0.274153	0.397622	0.41779	0.214402	0.087398	0.154685	0.018984	0.008863	1.209421	0.295883	0.012396	0.371226	0.088314	0.103051
3.119	0.543961	0.500034	0.277316	0.401063	0.423091	0.218899	0.087594	0.157044	0.019378	0.008845	1.203457	0.299666	0.013163	0.371666	0.090241	0.105581
3.1195	0.541756	0.497545	0.280504	0.404534	0.428383	0.223453	0.087791	0.15943	0.019778	0.008828	1.197264	0.303497	0.013952	0.372058	0.092204	0.108145
3.12	0.539508	0.495027	0.283717	0.408034	0.433662	0.228065	0.087987	0.161844	0.020185	0.008813	1.190845	0.307374	0.014762	0.372402	0.094202	0.110744
3.1205	0.537218	0.492481	0.286954	0.411566	0.438926	0.232733	0.088184	0.164285	0.020598	0.0088	1.184205	0.3113	0.015594	0.372696	0.096236	0.113376
3.121	0.534888	0.489907	0.290215	0.415127	0.444174	0.237457	0.088381	0.166754	0.021019	0.008789	1.177349	0.315273	0.016448	0.37294	0.098306	0.116041
3.1215	0.532519	0.487307	0.2935	0.41872	0.449401	0.242236	0.088577	0.16925	0.021447	0.008781	1.170281	0.319294	0.017324	0.373132	0.100411	0.11874
3.122	0.530112	0.484683	0.29681	0.422344	0.454607	0.24707	0.088774	0.171773	0.021881	0.008774	1.163007	0.323365	0.018223	0.373273	0.102552	0.121471
3.1225	0.52767	0.482035	0.300143	0.425999	0.459787	0.251958	0.088971	0.174323	0.022322	0.00877	1.155532	0.327484	0.019145	0.373361	0.104728	0.124234
3.123	0.525193	0.479365	0.303501	0.429686	0.46494	0.256898	0.089168	0.1769	0.02277	0.008768	1.14786	0.331653	0.02009	0.373396	0.10694	0.127029
3.1235	0.522683	0.476673	0.306882	0.433406	0.470062	0.261891	0.089364	0.179504	0.023225	0.008768	1.139994	0.335871	0.021058	0.373376	0.109188	0.129856
3.124	0.520141	0.473962	0.310287	0.437158	0.475151	0.266936	0.089561	0.182135	0.023687	0.008771	1.13194	0.340139	0.02205	0.373301	0.111472	0.132713
3.1245	0.517568	0.471232	0.313714	0.440943	0.480202	0.272031	0.089758	0.184793	0.024155	0.008776	1.123701	0.344457	0.023066	0.37317	0.113791	0.135601
3.125	0.514965	0.468485	0.317165	0.444762	0.485214	0.277177	0.089956	0.187477	0.024631	0.008784	1.11528	0.348826	0.024106	0.372983	0.116146	0.138519
3.1255	0.512335	0.465721	0.320638	0.448615	0.490182	0.282373	0.090153	0.190189	0.025113	0.008794	1.10668	0.353245	0.02517	0.372737	0.118537	0.141467
3.126	0.509677	0.462941	0.324133	0.452502	0.495104	0.287617	0.09035	0.192928	0.025602	0.008807	1.097906	0.357714	0.026258	0.372434	0.120963	0.144443
3.1265	0.506994	0.460146	0.327649	0.456423	0.499976	0.29291	0.090547	0.195695	0.026098	0.008823	1.08896	0.362234	0.027372	0.372071	0.123424	0.147448
3.127	0.504288	0.457337	0.331186	0.460378	0.504795	0.29825	0.090744	0.198488	0.0266	0.008841	1.079847	0.366805	0.02851	0.371648	0.12592	0.150481
3.1275	0.501558	0.454515	0.334743	0.464367	0.509558	0.303636	0.090941	0.201308	0.027109	0.008863	1.070571	0.371426	0.029673	0.371166	0.128451	0.153541
3.128	0.498808	0.451681	0.33832	0.46839	0.514263	0.309069	0.091138	0.204156	0.027625	0.008887	1.061138	0.376098	0.030862	0.370623	0.131016	0.156628
3.1285	0.496037	0.448834	0.341915	0.472447	0.518907	0.314547	0.091335	0.20703	0.028148	0.008914	1.051551	0.38082	0.032077	0.37002	0.133616	0.159741
3.129	0.493248	0.445977	0.345527	0.476537	0.523489	0.320069	0.091531	0.209931	0.028677	0.008944	1.041818	0.385591	0.033317	0.369357	0.13625	0.162879
3.1295	0.490441	0.443109	0.349157	0.480661	0.528007	0.325635	0.091728	0.212858	0.029212	0.008977	1.031943	0.390412	0.034584	0.368633	0.138918	0.166043
3.13	0.487618	0.44023	0.352803	0.484818	0.53246	0.331243	0.091925	0.215811	0.029754	0.009014	1.021931	0.395282	0.035876	0.367847	0.141619	0.169231
3.1305	0.48478	0.437342	0.356464	0.489007	0.536846	0.336891	0.092123	0.218791	0.030303	0.009054	1.011788	0.4002	0.037195	0.367	0.144353	0.172443
3.131	0.481928	0.434445	0.360139	0.493228	0.541162	0.34258	0.092321	0.221796	0.030858	0.009097	1.00152	0.405166	0.038541	0.366091	0.14712	0.175678
3.1315	0.479065	0.431539	0.363828	0.49748	0.545409	0.348308	0.092519	0.224826	0.03142	0.009143	0.991133	0.410179	0.039913	0.365119	0.149919	0.178934
3.132	0.476191	0.428624	0.367529	0.501762	0.549583	0.354073	0.092718	0.227881	0.031989	0.009193	0.980634	0.415238	0.041312	0.364084	0.152749	0.182213
3.1325	0.473309	0.425702	0.371241	0.506075	0.553685	0.359876	0.092918	0.230961	0.032564	0.009247	0.970029	0.420343	0.042738	0.362986	0.15561	0.185511
3.133	0.47042	0.422772	0.374962	0.510416	0.557713	0.365714	0.093119	0.234065	0.033145	0.009304	0.959325	0.425491	0.044191	0.361824	0.158502	0.18883
3.1335	0.467525	0.419835	0.378692	0.514784	0.561666	0.371587	0.09332	0.237192	0.033733	0.009365	0.948529	0.430682	0.045671	0.360598	0.161423	0.192168
3.134	0.464627	0.416892	0.382429	0.519179	0.565545	0.377494	0.093523	0.240343	0.034328	0.009431	0.937647	0.435915	0.047178	0.359309	0.164374	0.195525
3.1345	0.461725	0.413944	0.386171	0.5236	0.56935	0.383435	0.093726	0.243517	0.034929	0.0095	0.926688	0.441188	0.048713	0.357955	0.167354	0.1989
3.135	0.458823	0.41099	0.389917	0.528045	0.57308	0.389407	0.093931	0.246712	0.035536	0.009574	0.915655	0.4465	0.050276	0.356537	0.170361	0.202292
3.1355	0.455922	0.408032	0.393665	0.532513	0.576738	0.39541	0.094137	0.249929	0.03615	0.009652	0.904558	0.451849	0.051866	0.355056	0.173397	0.205702
3.136	0.453023	0.405071	0.397414	0.537003	0.580322	0.401444	0.094345	0.253167	0.03677	0.009734	0.8934	0.457234	0.053483	0.353513	0.17646	0.209128
3.1365	0.450128	0.402106	0.401163	0.541513	0.583833	0.407506	0.094554	0.256425	0.037397	0.009821	0.882189	0.462654	0.055128	0.35191	0.179551	0.212571
3.137	0.447238	0.39914	0.40491	0.546041	0.587273	0.413598	0.094765	0.259702	0.03803	0.009914	0.87093	0.468105	0.056801	0.350249	0.182667	0.21603
3.1375	0.444356	0.396173	0.408653	0.550587	0.59064	0.419716	0.094978	0.262997	0.038669	0.010011	0.85963	0.473588	0.058501	0.34853	0.18581	0.219504
3.138	0.441481	0.393205	0.412393	0.555149	0.593936	0.425862	0.095193	0.26631	0.039315	0.010113	0.848293	0.479099	0.06023	0.346757	0.188979	0.222993
3.1385	0.438617	0.390238	0.416126	0.559724	0.59716	0.432032	0.095409	0.269638	0.039967	0.01022	0.836926	0.484637	0.061986	0.34493	0.192173	0.226496
3.139	0.435763	0.387272	0.419853	0.564312	0.600311	0.438227	0.095627	0.272982	0.040625	0.010333	0.825535	0.4902	0.063769	0.343052	0.195392	0.230013
3.1395	0.432922	0.38431	0.423573	0.56891	0.603391	0.444446	0.095847	0.276341	0.041288	0.010452	0.814124	0.495786	0.065581	0.341125	0.198635	0.233544
3.14	0.430096	0.381352	0.427284	0.573518	0.606399	0.450685	0.096068	0.279712	0.041958	0.010576	0.802699	0.501393	0.06742	0.339151	0.201901	0.237087
3.1405	0.427284	0.3784	0.430986	0.578134	0.609336	0.456946	0.096291	0.283095	0.042634	0.010706	0.791265	0.50702	0.069287	0.337132	0.205191	0.240642
3.141	0.424489	0.375455	0.434679	0.582757	0.6122	0.463225	0.096516	0.28649	0.043316	0.010842	0.779827	0.512664	0.071182	0.335071	0.208503	0.244209
3.1415	0.421711	0.372519	0.438361	0.587385	0.614991	0.469521	0.096742	0.289894	0.044003	0.010984	0.76839	0.518324	0.073105	0.332968	0.211837	0.247786
3.142	0.418952	0.369594	0.442032	0.592018	0.61771	0.475834	0.096969	0.293308	0.044697	0.011133	0.756957	0.523999	0.075054	0.330827	0.215194	0.251374
3.1425	0.416211	0.366681	0.445691	0.596656	0.620355	0.48216	0.097197	0.29673	0.045396	0.011288	0.745534	0.529687	0.077032	0.328648	0.218572	0.254972
3.143	0.413492	0.363781	0.44934	0.601296	0.622926	0.488499	0.097426	0.300159	0.046101	0.01145	0.734125	0.535386	0.079036	0.326435	0.221971	0.25858
3.1435	0.410792	0.360895	0.452977	0.605938	0.625423	0.494849	0.097656	0.303594	0.046812	0.011619	0.722733	0.541095	0.081068	0.324188	0.225391	0.262196
3.144	0.408115	0.358025	0.456602	0.610581	0.627843	0.501209	0.097887	0.307034	0.047528	0.011795	0.711364	0.546813	0.083127	0.321909	0.228833	0.265822
3.1445	0.40546	0.355172	0.460217	0.615225	0.630187	0.507576	0.098118	0.310479	0.048251	0.011979	0.700022	0.552536	0.085213	0.319602	0.232294	0.269456
3.145	0.402828	0.352337	0.463822	0.619868	0.632452	0.513949	0.098349	0.313927	0.048979	0.01217	0.68871	0.558264	0.087325	0.317267	0.235776	0.273097
3.1455	0.40022	0.349522	0.467416	0.624509	0.634638	0.520326	0.09858	0.317377	0.049713	0.012368	0.677433	0.563995	0.089465	0.314908	0.239278	0.276747
3.146	0.397637	0.346727	0.471	0.629149	0.636744	0.526707	0.098811	0.320829	0.050453	0.012575	0.666196	0.569729	0.09163	0.312526	0.242799	0.280402
3.1465	0.395079	0.343954	0.474573	0.633785	0.638767	0.533088	0.099041	0.324283	0.051199	0.012791	0.655002	0.575463	0.093821	0.310124	0.246339	0.284065
3.147	0.392548	0.341203	0.478136	0.638418	0.640706	0.53947	0.09927	0.327737	0.05195	0.013015	0.643856	0.581197	0.096039	0.307703	0.249897	0.287732
3.1475	0.390044	0.338476	0.481688	0.643047	0.642561	0.545849	0.099499	0.331191	0.052708	0.013248	0.63276	0.58693	0.098281	0.305266	0.253473	0.291405
3.148	0.387568	0.335773	0.48523	0.64767	0.644329	0.552224	0.099725	0.334644	0.053472	0.013489	0.62172	0.59266	0.100549	0.302815	0.257066	0.295082
3.1485	0.38512	0.333096	0.488761	0.652288	0.646011	0.558594	0.09995	0.338096	0.054241	0.013741	0.610739	0.598386	0.102842	0.300353	0.260676	0.298762
3.149	0.382702	0.330445	0.492281	0.656899	0.647605	0.564956	0.100173	0.341544	0.055017	0.014001	0.59982	0.604108	0.105159	0.29788	0.264302	0.302445
3.1495	0.380313	0.327822	0.49579	0.661502	0.64911	0.57131	0.100394	0.344989	0.055799	0.014272	0.588967	0.609823	0.107501	0.295399	0.267943	0.306129
3.15	0.377954	0.325227	0.499288	0.666095	0.650525	0.577652	0.100613	0.348429	0.056588	0.014552	0.578183	0.615531	0.109866	0.292911	0.2716	0.309815
3.1505	0.375625	0.322662	0.502777	0.670679	0.65185	0.583982	0.100828	0.351865	0.057382	0.014843	0.567471	0.621231	0.112255	0.290418	0.275271	0.3135
3.151	0.373327	0.320126	0.506256	0.675251	0.653084	0.590297	0.101041	0.355295	0.058183	0.015145	0.556835	0.62692	0.114667	0.287922	0.278956	0.317184
3.1515	0.371059	0.317622	0.509725	0.679809	0.654226	0.596596	0.10125	0.35872	0.05899	0.015457	0.546278	0.632598	0.117101	0.285425	0.282655	0.320866
3.152	0.368821	0.31515	0.513185	0.684355	0.655275	0.602877	0.101456	0.362138	0.059803	0.015779	0.535802	0.638262	0.119557	0.282927	0.286368	0.324545
3.1525	0.366614	0.31271	0.516637	0.688885	0.65623	0.609136	0.101657	0.365551	0.060623	0.016114	0.52541	0.643912	0.122035	0.28043	0.290094	0.32822
3.153	0.364437	0.310303	0.520081	0.693399	0.657091	0.615373	0.101855	0.368957	0.061449	0.016459	0.515104	0.649547	0.124534	0.277935	0.293832	0.331889
3.1535	0.36229	0.307931	0.523517	0.697895	0.657857	0.621586	0.102048	0.372356	0.06228	0.016816	0.504888	0.655167	0.127053	0.275445	0.297582	0.335552
3.154	0.360173	0.305594	0.526946	0.702373	0.658528	0.627771	0.102236	0.375747	0.063118	0.017185	0.494764	0.66077	0.129592	0.272959	0.301344	0.339206
3.1545	0.358084	0.303293	0.530368	0.706831	0.659104	0.633928	0.102419	0.379131	0.063963	0.017566	0.484733	0.666358	0.132151	0.270479	0.305116	0.342851
3.155	0.356025	0.301029	0.533784	0.711267	0.659586	0.640054	0.102596	0.382506	0.064813	0.017959	0.474797	0.671929	0.134729	0.268006	0.308899	0.346486
3.1555	0.353994	0.298803	0.537193	0.71568	0.659975	0.646146	0.102767	0.385872	0.065669	0.018365	0.46496	0.677485	0.137325	0.265542	0.312691	0.350109
3.156	0.351991	0.296614	0.540596	0.720068	0.660272	0.652203	0.102932	0.389228	0.066531	0.018783	0.455222	0.683024	0.139938	0.263087	0.316491	0.353718
3.1565	0.350015	0.294464	0.543994	0.72443	0.660478	0.658222	0.103091	0.392574	0.0674	0.019214	0.445586	0.688548	0.142568	0.260643	0.320299	0.357312
3.157	0.348066	0.292353	0.547386	0.728763	0.660594	0.664199	0.103243	0.395908	0.068274	0.019658	0.436052	0.694055	0.145214	0.258209	0.324114	0.360891
3.1575	0.346142	0.29028	0.550773	0.733068	0.660622	0.670133	0.103388	0.39923	0.069154	0.020116	0.426623	0.699548	0.147876	0.255788	0.327934	0.364452
3.158	0.344244	0.288248	0.554155	0.737343	0.660563	0.67602	0.103526	0.402539	0.07004	0.020587	0.417301	0.705025	0.150552	0.25338	0.331758	0.367995
3.1585	0.342371	0.286255	0.557532	0.741588	0.660417	0.681856	0.103657	0.405833	0.070932	0.021071	0.408085	0.710486	0.153242	0.250987	0.335586	0.371518
3.159	0.340522	0.284301	0.560903	0.745802	0.660187	0.68764	0.103781	0.409112	0.071829	0.02157	0.398979	0.715932	0.155944	0.248608	0.339417	0.375019
3.1595	0.338698	0.282388	0.564269	0.749983	0.659874	0.693366	0.103898	0.412375	0.072732	0.022082	0.389983	0.721363	0.158659	0.246245	0.343249	0.378498
3.16	0.336897	0.280514	0.56763	0.754132	0.659479	0.699033	0.104007	0.41562	0.073641	0.022609	0.381099	0.726778	0.161385	0.243899	0.347081	0.381953
3.1605	0.335119	0.278679	0.570986	0.758247	0.659004	0.704638	0.104108	0.418847	0.074556	0.02315	0.372327	0.732176	0.164122	0.24157	0.350914	0.385383
3.161	0.333365	0.276884	0.574336	0.762328	0.65845	0.710178	0.104202	0.422055	0.075476	0.023706	0.363669	0.737558	0.166868	0.23926	0.354747	0.388785
3.1615	0.331632	0.275128	0.57768	0.766373	0.657819	0.71565	0.104288	0.425243	0.076401	0.024277	0.355126	0.742922	0.169622	0.236968	0.358579	0.392159
3.162	0.329921	0.273411	0.581019	0.770382	0.657112	0.721053	0.104366	0.428411	0.077332	0.024863	0.346699	0.748267	0.172385	0.234697	0.36241	0.395502
3.1625	0.328231	0.271733	0.584352	0.774354	0.656331	0.726383	0.104436	0.431558	0.078269	0.025464	0.338389	0.753594	0.175154	0.232445	0.366239	0.398813
3.163	0.326561	0.270093	0.587679	0.778288	0.655476	0.73164	0.104498	0.434684	0.079211	0.026081	0.330196	0.758903	0.177929	0.230214	0.370067	0.402091
3.1635	0.32491	0.26849	0.591001	0.782181	0.654549	0.73682	0.104551	0.437787	0.08016	0.026714	0.322121	0.764191	0.180709	0.228005	0.373893	0.405334
3.164	0.323278	0.266925	0.594316	0.786032	0.653551	0.741921	0.104597	0.440867	0.081114	0.027363	0.314165	0.76946	0.183493	0.225817	0.377716	0.408541
3.1645	0.321663	0.265395	0.597624	0.789839	0.652482	0.746942	0.104634	0.443923	0.082075	0.028028	0.306328	0.774708	0.186279	0.223652	0.381537	0.411711
3.165	0.320065	0.263902	0.600926	0.793601	0.651346	0.75188	0.104664	0.446955	0.083042	0.028711	0.298611	0.779935	0.189068	0.221509	0.385355	0.414843
3.1655	0.318483	0.262444	0.60422	0.797315	0.650141	0.756734	0.104685	0.449961	0.084015	0.02941	0.291014	0.785139	0.191857	0.21939	0.389169	0.417936
3.166	0.316915	0.26102	0.607506	0.800979	0.64887	0.761503	0.104699	0.45294	0.084995	0.030126	0.283537	0.79032	0.194645	0.217294	0.392981	0.420989
3.1665	0.31536	0.25963	0.610783	0.80459	0.647533	0.766184	0.104706	0.455892	0.085983	0.030861	0.27618	0.795477	0.197431	0.215222	0.396789	0.424
3.167	0.313819	0.258272	0.61405	0.808147	0.646131	0.770776	0.104705	0.458815	0.086977	0.031613	0.268944	0.800608	0.200215	0.213175	0.400594	0.42697
3.1675	0.312289	0.256945	0.617306	0.811645	0.644664	0.775278	0.104696	0.46171	0.087978	0.032383	0.261829	0.805712	0.202994	0.211151	0.404395	0.429897
3.168	0.310769	0.255649	0.620549	0.815082	0.643135	0.779687	0.10468	0.464576	0.088987	0.033172	0.254834	0.810788	0.205768	0.209152	0.408191	0.432781
3.1685	0.30926	0.254382	0.623779	0.818455	0.641543	0.784003	0.104657	0.467413	0.090003	0.03398	0.24796	0.815835	0.208535	0.207178	0.411982	0.435622
3.169	0.30776	0.253144	0.626994	0.82176	0.639888	0.788223	0.104626	0.470222	0.091027	0.034806	0.241205	0.820852	0.211293	0.205228	0.415767	0.438419
3.1695	0.306268	0.251932	0.630193	0.824995	0.638172	0.792346	0.104587	0.473002	0.092059	0.035653	0.234571	0.825837	0.214042	0.203303	0.419546	0.441173
3.17	0.304784	0.250747	0.633374	0.828155	0.636394	0.796372	0.104541	0.475754	0.093099	0.036519	0.228057	0.830788	0.21678	0.201404	0.423317	0.443883
3.1705	0.303307	0.249586	0.636537	0.831238	0.634556	0.800298	0.104488	0.478478	0.094147	0.037406	0.221662	0.835706	0.219505	0.19953	0.427081	0.44655
3.171	0.301836	0.248449	0.639679	0.834238	0.632658	0.804124	0.104426	0.481175	0.095203	0.038312	0.215386	0.840589	0.222217	0.197681	0.430836	0.449175
3.1715	0.300372	0.247334	0.642798	0.837152	0.630701	0.807848	0.104357	0.483846	0.096267	0.03924	0.209229	0.845436	0.224914	0.195859	0.434583	0.451756
3.172	0.298914	0.246239	0.645894	0.839976	0.628686	0.81147	0.104281	0.48649	0.097339	0.040189	0.203191	0.850247	0.227595	0.194062	0.43832	0.454295
3.1725	0.297461	0.245164	0.648965	0.842705	0.626616	0.814989	0.104196	0.489109	0.098419	0.04116	0.19727	0.85502	0.230258	0.192291	0.442048	0.456792
3.173	0.296012	0.244108	0.652008	0.845334	0.624491	0.818403	0.104103	0.491703	0.099508	0.042152	0.191467	0.859755	0.232903	0.190547	0.445765	0.459246
3.1735	0.294568	0.243067	0.655023	0.84786	0.622314	0.821713	0.104002	0.494273	0.100604	0.043167	0.18578	0.86445	0.235529	0.18883	0.449471	0.461658
3.174	0.293128	0.242042	0.658007	0.850279	0.620086	0.824918	0.103893	0.496822	0.101709	0.044204	0.18021	0.869106	0.238133	0.187139	0.453166	0.464029
3.1745	0.29169	0.241029	0.660959	0.852588	0.617809	0.828018	0.103775	0.499349	0.102822	0.045263	0.174755	0.87372	0.240716	0.185476	0.456847	0.46636
3.175	0.290254	0.240029	0.663879	0.854784	0.615484	0.831014	0.103649	0.501857	0.103943	0.046346	0.169415	0.878293	0.243275	0.18384	0.460515	0.46865
3.1755	0.288821	0.239038	0.666766	0.856865	0.613112	0.833905	0.103514	0.504348	0.105072	0.047453	0.16419	0.882822	0.245812	0.182233	0.464167	0.470901
3.176	0.287388	0.238056	0.669619	0.858828	0.610696	0.836692	0.103371	0.506821	0.106209	0.048582	0.159078	0.887308	0.248323	0.180654	0.467804	0.473114
3.1765	0.285956	0.237082	0.672438	0.860672	0.608236	0.839375	0.103219	0.50928	0.107354	0.049736	0.154078	0.891747	0.25081	0.179103	0.471423	0.475288
3.177	0.284523	0.236113	0.675223	0.862394	0.605733	0.841954	0.103059	0.511724	0.108507	0.050914	0.14919	0.89614	0.25327	0.177581	0.475023	0.477424
3.1775	0.28309	0.235148	0.677972	0.863993	0.60319	0.844429	0.10289	0.514155	0.109667	0.052116	0.144413	0.900485	0.255703	0.176087	0.478602	0.479522
3.178	0.281655	0.234186	0.680685	0.865467	0.600608	0.8468	0.102712	0.516574	0.110836	0.053343	0.139746	0.90478	0.258108	0.174623	0.48216	0.481582
3.1785	0.280218	0.233226	0.683364	0.866816	0.597987	0.849065	0.102526	0.518982	0.112012	0.054594	0.135189	0.909024	0.260484	0.173188	0.485694	0.483605
3.179	0.27878	0.232266	0.686007	0.868038	0.595331	0.851223	0.102332	0.521379	0.113195	0.055871	0.130739	0.913216	0.26283	0.171781	0.489202	0.48559
3.1795	0.277338	0.231306	0.688615	0.869135	0.592639	0.853275	0.102128	0.523766	0.114386	0.057172	0.126397	0.917356	0.265144	0.170404	0.492683	0.487538
3.18	0.275893	0.230344	0.69119	0.870106	0.589913	0.855218	0.101917	0.526144	0.115584	0.058499	0.12216	0.921442	0.267426	0.169055	0.496135	0.489448
3.1805	0.274444	0.22938	0.693731	0.870952	0.587155	0.857051	0.101696	0.528513	0.116789	0.059851	0.118029	0.925472	0.269673	0.167736	0.499555	0.491319
3.181	0.272991	0.228412	0.696239	0.871675	0.584366	0.858774	0.101467	0.530873	0.118001	0.061229	0.114002	0.929447	0.271886	0.166445	0.502942	0.493153
3.1815	0.271534	0.22744	0.698716	0.872275	0.581546	0.860384	0.10123	0.533224	0.11922	0.062632	0.110078	0.933365	0.274062	0.165182	0.506292	0.494947
3.182	0.270071	0.226463	0.701162	0.872753	0.578697	0.861882	0.100984	0.535567	0.120444	0.064062	0.106255	0.937224	0.276202	0.163948	0.509604	0.496701
3.1825	0.268603	0.22548	0.703577	0.87311	0.575818	0.863266	0.10073	0.537901	0.121675	0.065517	0.102534	0.941025	0.278303	0.162742	0.512875	0.498415
3.183	0.26713	0.22449	0.705963	0.873346	0.572911	0.864536	0.100467	0.540227	0.122911	0.066998	0.098912	0.944767	0.280365	0.161565	0.516102	0.500088
3.1835	0.265651	0.223494	0.708321	0.873462	0.569976	0.865692	0.100195	0.542544	0.124153	0.068505	0.095388	0.94845	0.282387	0.160415	0.519282	0.501719
3.184	0.264165	0.222491	0.710651	0.873458	0.567014	0.866731	0.099915	0.544852	0.125399	0.070038	0.091961	0.952073	0.284368	0.159292	0.522414	0.503307
3.1845	0.262673	0.221482	0.712954	0.873334	0.564023	0.867653	0.099626	0.547152	0.126651	0.071597	0.088631	0.955636	0.286306	0.158197	0.525495	0.504852
3.185	0.261174	0.220467	0.715233	0.873092	0.561004	0.868456	0.099328	0.549445	0.127907	0.073183	0.085395	0.959139	0.2882	0.157129	0.528522	0.506352
3.1855	0.259668	0.219445	0.717487	0.872733	0.557956	0.869139	0.099021	0.551729	0.129167	0.074795	0.082253	0.96258	0.29005	0.156087	0.531493	0.507807
3.186	0.258154	0.218417	0.719718	0.872258	0.55488	0.8697	0.098705	0.554005	0.130431	0.076433	0.079203	0.965958	0.291852	0.155073	0.534407	0.509216
3.1865	0.256633	0.217384	0.721928	0.871669	0.551775	0.870138	0.09838	0.556274	0.131698	0.078098	0.076244	0.969274	0.293607	0.154084	0.53726	0.510577
3.187	0.255103	0.216345	0.724115	0.870968	0.548639	0.870452	0.098046	0.558535	0.132969	0.079788	0.073376	0.972525	0.295313	0.153122	0.540051	0.511891
3.1875	0.253564	0.215301	0.726282	0.870157	0.545473	0.87064	0.097702	0.560788	0.134243	0.081505	0.070595	0.97571	0.296968	0.152186	0.542777	0.513155
3.188	0.252017	0.214251	0.728429	0.869237	0.542275	0.870702	0.09735	0.563033	0.13552	0.083248	0.067902	0.978828	0.298571	0.151275	0.545436	0.514369
3.1885	0.250461	0.213196	0.730557	0.868211	0.539045	0.870636	0.096989	0.565271	0.1368	0.085018	0.065296	0.981878	0.30012	0.150389	0.548027	0.515531
3.189	0.248896	0.212135	0.732666	0.86708	0.535783	0.87044	0.096618	0.5675	0.138083	0.086813	0.062774	0.984856	0.301615	0.149528	0.550545	0.516642
3.1895	0.247323	0.21107	0.734758	0.865847	0.532487	0.870113	0.096239	0.56972	0.139368	0.088634	0.060336	0.987763	0.303053	0.148691	0.55299	0.517699
3.19	0.24574	0.210001	0.736833	0.864512	0.529157	0.869653	0.095851	0.571931	0.140655	0.090481	0.05798	0.990596	0.304433	0.147878	0.555359	0.518701
3.1905	0.244149	0.208927	0.738891	0.863078	0.525792	0.869059	0.095454	0.574132	0.141944	0.092354	0.055706	0.993354	0.305753	0.147089	0.557649	0.519648
3.191	0.24255	0.207849	0.740934	0.861548	0.522392	0.868328	0.095048	0.576322	0.143234	0.094252	0.053511	0.996035	0.307012	0.146323	0.559857	0.520538
3.1915	0.240942	0.206768	0.742962	0.859925	0.518957	0.86746	0.094634	0.578502	0.144526	0.096176	0.051396	0.998639	0.308209	0.145579	0.561983	0.521371
3.192	0.239327	0.205683	0.744974	0.858211	0.515487	0.866454	0.094211	0.580669	0.145818	0.098124	0.049358	1.001162	0.30934	0.144857	0.564022	0.522145
3.1925	0.237704	0.204595	0.746972	0.856408	0.51198	0.865306	0.093779	0.582825	0.147111	0.100098	0.047396	1.003604	0.310406	0.144156	0.565973	0.522861
3.193	0.236074	0.203505	0.748956	0.85452	0.508436	0.864017	0.093338	0.584967	0.148404	0.102096	0.04551	1.005962	0.311404	0.143477	0.567832	0.523516
3.1935	0.234437	0.202412	0.750927	0.852549	0.504856	0.862584	0.092888	0.587096	0.149696	0.104118	0.043697	1.008235	0.312334	0.142817	0.569598	0.524111
3.194	0.232792	0.201317	0.752884	0.850498	0.501237	0.861005	0.092429	0.58921	0.150988	0.106164	0.041957	1.010422	0.313194	0.142178	0.571267	0.524644
3.1945	0.231141	0.20022	0.754828	0.848369	0.49758	0.859279	0.091962	0.591309	0.152279	0.108235	0.040288	1.012521	0.313984	0.141558	0.572838	0.525114
3.195	0.229484	0.199121	0.75676	0.846166	0.493884	0.857403	0.091485	0.593391	0.153569	0.110328	0.038689	1.014531	0.314702	0.140957	0.574306	0.52552
3.1955	0.227819	0.198022	0.75868	0.84389	0.490148	0.855376	0.090999	0.595456	0.154857	0.112444	0.037158	1.016453	0.315348	0.140375	0.575671	0.52586
3.196	0.226148	0.196922	0.760588	0.841544	0.486372	0.853197	0.090505	0.597503	0.156143	0.114583	0.035695	1.018286	0.315923	0.13981	0.576929	0.526133
3.1965	0.224471	0.195821	0.762485	0.839132	0.482555	0.850865	0.090002	0.59953	0.157425	0.116744	0.034299	1.02003	0.316424	0.139263	0.578077	0.526337
3.197	0.222787	0.19472	0.76437	0.836656	0.478697	0.848379	0.08949	0.601536	0.158705	0.118927	0.032967	1.021685	0.316851	0.138733	0.579115	0.526471
3.1975	0.221097	0.19362	0.766245	0.834118	0.474798	0.845739	0.08897	0.603519	0.159981	0.12113	0.031699	1.02325	0.317205	0.13822	0.580039	0.526533
3.198	0.219401	0.19252	0.768109	0.831521	0.470858	0.842945	0.088441	0.605479	0.161252	0.123354	0.030493	1.024726	0.317484	0.137723	0.580848	0.526521
3.1985	0.2177	0.191422	0.769962	0.828866	0.466877	0.839995	0.087905	0.607414	0.162518	0.125599	0.029349	1.026112	0.317688	0.137243	0.581543	0.526435
3.199	0.215993	0.190326	0.771803	0.826154	0.462856	0.83689	0.087359	0.609322	0.163778	0.127862	0.028265	1.027408	0.317816	0.136778	0.582122	0.526272
3.1995	0.21428	0.189233	0.773632	0.823388	0.458795	0.833628	0.086806	0.611203	0.165032	0.130145	0.02724	1.028615	0.317869	0.136328	0.582586	0.526032
3.2	0.212564	0.188142	0.77545	0.820569	0.454695	0.830208	0.086245	0.613057	0.166278	0.132446	0.026273	1.029732	0.317846	0.135894	0.582935	0.525714
3.2005	0.210843	0.187055	0.777255	0.817698	0.450557	0.826632	0.085677	0.614881	0.167517	0.134764	0.025363	1.03076	0.317748	0.135473	0.583169	0.52532
3.201	0.209118	0.185971	0.779048	0.814777	0.446382	0.822897	0.0851	0.616677	0.168746	0.137099	0.024508	1.0317	0.317575	0.135067	0.583288	0.524847
3.2015	0.20739	0.184891	0.780829	0.811806	0.442171	0.819005	0.084517	0.618444	0.169967	0.139451	0.023707	1.032552	0.317329	0.134675	0.583294	0.524297
3.202	0.205658	0.183816	0.782598	0.808788	0.437925	0.814955	0.083926	0.62018	0.171177	0.141819	0.02296	1.033318	0.317011	0.134297	0.583186	0.52367
3.2025	0.203924	0.182745	0.784354	0.805724	0.433644	0.810749	0.083329	0.621886	0.172376	0.144202	0.022265	1.033998	0.31662	0.133933	0.582965	0.522965
3.203	0.202187	0.181679	0.786097	0.802614	0.429331	0.806388	0.082724	0.623561	0.173564	0.146599	0.021621	1.034591	0.31616	0.133581	0.582631	0.522183
3.2035	0.200448	0.180618	0.787827	0.799461	0.424986	0.801876	0.082113	0.625204	0.174739	0.14901	0.021027	1.035099	0.31563	0.133244	0.582185	0.521323
3.204	0.198707	0.179563	0.789543	0.796265	0.42061	0.797213	0.081495	0.626816	0.175902	0.151433	0.020482	1.035521	0.315032	0.132919	0.581628	0.520387
3.2045	0.196963	0.178513	0.791243	0.793027	0.416203	0.792405	0.080871	0.628397	0.177051	0.153869	0.019984	1.035858	0.314366	0.132608	0.580961	0.519374
3.205	0.195218	0.177469	0.792928	0.78975	0.411768	0.787452	0.08024	0.629948	0.178186	0.156316	0.019533	1.036109	0.313634	0.132309	0.580184	0.518286
3.2055	0.193471	0.17643	0.794597	0.786435	0.407304	0.78236	0.079603	0.63147	0.179307	0.158774	0.019128	1.036275	0.312836	0.132023	0.5793	0.517123
3.206	0.191722	0.175398	0.796247	0.783085	0.402814	0.777129	0.078961	0.632962	0.180413	0.161242	0.018766	1.036355	0.311973	0.13175	0.578309	0.515886
3.2065	0.189971	0.174372	0.797877	0.7797	0.398298	0.771763	0.078312	0.634427	0.181504	0.163718	0.018448	1.03635	0.311046	0.131489	0.577212	0.514576
3.207	0.188218	0.173352	0.799487	0.776282	0.393759	0.766265	0.077658	0.635864	0.182579	0.166202	0.018172	1.03626	0.310057	0.131241	0.576011	0.513194
3.2075	0.186464	0.172339	0.801076	0.772834	0.389196	0.760638	0.076999	0.637276	0.183637	0.168693	0.017938	1.036085	0.309005	0.131005	0.574707	0.511742
3.208	0.184707	0.171334	0.802642	0.769357	0.384613	0.754886	0.076335	0.638663	0.184679	0.171189	0.017743	1.035825	0.307894	0.130782	0.573303	0.51022
3.2085	0.182949	0.170335	0.804183	0.765852	0.380011	0.749011	0.075665	0.640027	0.185702	0.17369	0.017588	1.03548	0.306724	0.130573	0.571799	0.50863
3.209	0.18119	0.169345	0.8057	0.762321	0.375391	0.743019	0.074991	0.641368	0.186708	0.176195	0.017471	1.03505	0.305496	0.130376	0.570199	0.506972
3.2095	0.179428	0.168363	0.807189	0.758765	0.370756	0.736912	0.074313	0.642689	0.187694	0.178702	0.017391	1.034535	0.304213	0.130192	0.568503	0.505249
3.21	0.177665	0.167389	0.80865	0.755185	0.366108	0.730696	0.07363	0.64399	0.188661	0.18121	0.017348	1.033933	0.302876	0.130022	0.566715	0.503461
3.2105	0.1759	0.166426	0.81008	0.751583	0.361448	0.724375	0.072944	0.645272	0.189607	0.183717	0.01734	1.033244	0.301487	0.129866	0.564835	0.501609
3.211	0.174133	0.165472	0.811477	0.747958	0.356779	0.717954	0.072254	0.646536	0.190532	0.186224	0.017367	1.032468	0.300047	0.129723	0.562866	0.499696
3.2115	0.172364	0.164528	0.81284	0.744313	0.352102	0.711437	0.071561	0.647782	0.191436	0.188727	0.017427	1.031602	0.298558	0.129594	0.56081	0.49772
3.212	0.170594	0.163594	0.814168	0.740646	0.34742	0.70483	0.070864	0.649011	0.192316	0.191226	0.017519	1.030645	0.297021	0.129478	0.558668	0.495685
3.2125	0.168822	0.162672	0.815458	0.736961	0.342734	0.698137	0.070165	0.650224	0.193174	0.19372	0.017643	1.029596	0.295438	0.129376	0.556441	0.49359
3.213	0.167049	0.16176	0.81671	0.733257	0.338046	0.691364	0.069464	0.651421	0.194008	0.196207	0.017798	1.028456	0.29381	0.129289	0.55413	0.491437
3.2135	0.165275	0.160861	0.817924	0.729536	0.333358	0.684514	0.06876	0.6526	0.194818	0.198685	0.017982	1.027222	0.292139	0.129215	0.551738	0.489226
3.214	0.163499	0.159973	0.819098	0.725798	0.328672	0.677592	0.068055	0.653764	0.195603	0.201154	0.018194	1.025896	0.290427	0.129155	0.549264	0.486957
3.2145	0.161723	0.159097	0.820233	0.722044	0.323989	0.670602	0.067347	0.65491	0.196363	0.203611	0.018435	1.024476	0.288674	0.129108	0.546711	0.484632
3.215	0.159946	0.158234	0.821326	0.718275	0.319311	0.663548	0.066639	0.656039	0.197097	0.206055	0.018702	1.022963	0.286884	0.129076	0.544079	0.482252
3.2155	0.15817	0.157383	0.822377	0.714492	0.314638	0.656434	0.065929	0.657151	0.197804	0.208484	0.018995	1.021356	0.285057	0.129057	0.541369	0.479816
3.216	0.156394	0.156546	0.823386	0.710696	0.309973	0.649265	0.065219	0.658244	0.198484	0.210897	0.019312	1.019656	0.283195	0.129052	0.538583	0.477325
3.2165	0.154618	0.155721	0.82435	0.706886	0.305317	0.642045	0.064507	0.659317	0.199136	0.213292	0.019654	1.017862	0.281301	0.12906	0.535722	0.47478
3.217	0.152843	0.15491	0.825269	0.703066	0.300671	0.634776	0.063795	0.660371	0.199758	0.215666	0.020018	1.015974	0.279375	0.129082	0.532786	0.472181
3.2175	0.151069	0.154112	0.826142	0.699235	0.296036	0.627465	0.063083	0.661403	0.200351	0.218018	0.020405	1.013991	0.27742	0.129116	0.529777	0.469528
3.218	0.149297	0.153327	0.826967	0.695395	0.291412	0.620114	0.06237	0.662413	0.200914	0.220347	0.020813	1.011915	0.275438	0.129163	0.526694	0.466822
3.2185	0.147526	0.152556	0.827743	0.691547	0.286803	0.612727	0.061658	0.6634	0.201445	0.222649	0.021241	1.009743	0.273429	0.129223	0.523539	0.464061
3.219	0.145757	0.151798	0.828469	0.687691	0.282207	0.605309	0.060946	0.664361	0.201943	0.224923	0.021689	1.007477	0.271396	0.129295	0.520313	0.461247
3.2195	0.143991	0.151054	0.829144	0.683831	0.277627	0.597864	0.060234	0.665295	0.202409	0.227166	0.022155	1.005115	0.26934	0.129379	0.517016	0.458378
3.22	0.142228	0.150323	0.829766	0.679965	0.273064	0.590395	0.059522	0.666201	0.20284	0.229377	0.02264	1.002656	0.267261	0.129474	0.51365	0.455455
3.2205	0.140468	0.149605	0.830334	0.676096	0.268518	0.582907	0.058812	0.667077	0.203235	0.231553	0.023142	1.0001	0.265163	0.129581	0.510213	0.452477
3.221	0.138712	0.1489	0.830845	0.672225	0.263991	0.575403	0.058102	0.667922	0.203595	0.233692	0.023661	0.997446	0.263045	0.129697	0.506708	0.449444
3.2215	0.136961	0.148208	0.831296	0.668353	0.259485	0.567888	0.057394	0.668733	0.203917	0.235791	0.024195	0.994693	0.26091	0.129825	0.503135	0.446355
3.222	0.135214	0.14753	0.831687	0.66448	0.254999	0.560364	0.056687	0.669509	0.204201	0.237847	0.024745	0.991838	0.258758	0.129961	0.499494	0.443211
3.2225	0.133473	0.146865	0.832015	0.660606	0.250536	0.552835	0.055982	0.670247	0.204445	0.239859	0.025309	0.988882	0.25659	0.130107	0.495786	0.44001
3.223	0.131738	0.146213	0.832277	0.656733	0.246097	0.545306	0.055279	0.670946	0.204649	0.241823	0.025887	0.985822	0.254408	0.130262	0.492012	0.436753
3.2235	0.13001	0.145575	0.832471	0.652861	0.241682	0.537778	0.054578	0.671603	0.204812	0.243737	0.026478	0.982657	0.252212	0.130426	0.488173	0.433439
3.224	0.128289	0.14495	0.832596	0.64899	0.237293	0.530256	0.053879	0.672217	0.204933	0.245598	0.027081	0.979386	0.250004	0.130597	0.484269	0.430069
3.2245	0.126576	0.14434	0.832649	0.64512	0.23293	0.522743	0.053183	0.672786	0.205011	0.247404	0.027696	0.976007	0.247784	0.130777	0.480303	0.426643
3.225	0.124872	0.143744	0.832629	0.641251	0.228597	0.51524	0.05249	0.673309	0.205044	0.249151	0.028323	0.972519	0.245554	0.130963	0.476275	0.423162
3.2255	0.123177	0.143162	0.832534	0.637385	0.224292	0.507752	0.051801	0.673785	0.205033	0.250838	0.028959	0.968922	0.243313	0.131157	0.472187	0.419626
3.226	0.121492	0.142594	0.832362	0.63352	0.220018	0.500281	0.051115	0.674214	0.204976	0.252461	0.029605	0.965213	0.241064	0.131358	0.468039	0.416037
3.2265	0.119818	0.142041	0.832112	0.629657	0.215775	0.492829	0.050432	0.674596	0.204871	0.254019	0.03026	0.961393	0.238806	0.131565	0.463834	0.412396
3.227	0.118154	0.141503	0.831783	0.625796	0.211565	0.485399	0.049754	0.674931	0.204719	0.255507	0.030923	0.957461	0.23654	0.131779	0.459574	0.408705
3.2275	0.116502	0.14098	0.831375	0.621937	0.207388	0.477994	0.049081	0.675218	0.204518	0.256925	0.031593	0.953416	0.234266	0.131998	0.455258	0.404964
3.228	0.114863	0.140471	0.830886	0.618079	0.203245	0.470615	0.048411	0.675457	0.204268	0.25827	0.032271	0.94926	0.231987	0.132223	0.45089	0.401174
3.2285	0.113236	0.139978	0.830316	0.614224	0.199138	0.463266	0.047747	0.675647	0.203968	0.259539	0.032954	0.944992	0.229702	0.132453	0.446471	0.397338
3.229	0.111621	0.139499	0.829665	0.610371	0.195066	0.455948	0.047088	0.675788	0.203618	0.26073	0.033643	0.940613	0.227411	0.132689	0.442001	0.393456
3.2295	0.110021	0.139036	0.82893	0.60652	0.191031	0.448665	0.046434	0.67588	0.203218	0.261841	0.034337	0.936125	0.225117	0.132929	0.437483	0.389529
3.23	0.108434	0.138587	0.828113	0.602672	0.187033	0.441417	0.045786	0.675922	0.202765	0.26287	0.035034	0.931527	0.22282	0.133174	0.432916	0.385558
3.2305	0.106861	0.138153	0.827212	0.598825	0.183074	0.434208	0.045144	0.675911	0.202262	0.263814	0.035735	0.926819	0.22052	0.133423	0.428304	0.381545
3.231	0.105302	0.137735	0.826227	0.59498	0.179153	0.42704	0.044507	0.675849	0.201706	0.264673	0.036438	0.922003	0.218218	0.133676	0.423646	0.37749
3.2315	0.103759	0.137331	0.825158	0.591138	0.175272	0.419914	0.043877	0.675734	0.201098	0.265443	0.037143	0.91708	0.215916	0.133932	0.418945	0.373394
3.232	0.102231	0.136941	0.824004	0.587299	0.17143	0.412833	0.043253	0.675565	0.200438	0.266124	0.037848	0.912051	0.213613	0.134191	0.414201	0.369258
3.2325	0.100719	0.136566	0.822765	0.583464	0.16763	0.405799	0.042636	0.675342	0.199726	0.266714	0.038554	0.906917	0.211311	0.134453	0.409417	0.365084
3.233	0.099222	0.136206	0.82144	0.579634	0.16387	0.398814	0.042026	0.675065	0.198963	0.267213	0.039259	0.901679	0.209011	0.134716	0.404594	0.360874
3.2335	0.097742	0.135859	0.820029	0.575808	0.160152	0.39188	0.041423	0.674735	0.198148	0.26762	0.039963	0.896341	0.206711	0.134982	0.399734	0.356628
3.234	0.096279	0.135526	0.818529	0.571988	0.156477	0.384999	0.040828	0.674351	0.197282	0.267933	0.040664	0.890902	0.204415	0.135249	0.394839	0.352349
3.2345	0.094833	0.135207	0.81694	0.568175	0.152844	0.378172	0.04024	0.673914	0.196365	0.268153	0.041362	0.885365	0.20212	0.135518	0.389912	0.348038
3.235	0.093404	0.134901	0.81526	0.564369	0.149255	0.371401	0.03966	0.673424	0.195398	0.268279	0.042056	0.879732	0.199829	0.135787	0.384955	0.343698
3.2355	0.091994	0.134607	0.81349	0.560571	0.14571	0.364688	0.039088	0.672879	0.194381	0.268311	0.042745	0.874005	0.197542	0.136057	0.37997	0.339332
3.236	0.090601	0.134326	0.811627	0.556782	0.142209	0.358035	0.038525	0.67228	0.193314	0.268249	0.043429	0.868184	0.195258	0.136328	0.374959	0.33494
3.2365	0.089227	0.134057	0.80967	0.553001	0.138753	0.351443	0.03797	0.671626	0.192197	0.268093	0.044106	0.862271	0.192978	0.136598	0.369927	0.330525
3.237	0.087872	0.1338	0.807619	0.549229	0.135342	0.344915	0.037423	0.670918	0.191032	0.267843	0.044776	0.856267	0.190702	0.136868	0.364874	0.326091
3.2375	0.086536	0.133554	0.805474	0.545466	0.131977	0.338451	0.036886	0.670154	0.189819	0.267498	0.045437	0.850175	0.188431	0.137137	0.359803	0.321639
3.238	0.08522	0.133318	0.803231	0.541712	0.128658	0.332054	0.036358	0.669336	0.188559	0.26706	0.04609	0.843996	0.186165	0.137406	0.354718	0.317171
3.2385	0.083924	0.133093	0.800892	0.537968	0.125386	0.325725	0.035839	0.668464	0.187252	0.266528	0.046732	0.837732	0.183904	0.137674	0.349619	0.31269
3.239	0.082648	0.132876	0.798453	0.534232	0.12216	0.319466	0.035329	0.667539	0.1859	0.265903	0.047364	0.831383	0.181648	0.137941	0.34451	0.308197
3.2395	0.081393	0.132669	0.795914	0.530506	0.118981	0.313278	0.034829	0.66656	0.184503	0.265185	0.047986	0.824953	0.179398	0.138207	0.339392	0.303696
3.24	0.080158	0.13247	0.793274	0.526788	0.11585	0.307163	0.034339	0.665529	0.183063	0.264374	0.048595	0.818442	0.177155	0.138471	0.334268	0.299187
3.2405	0.078945	0.132278	0.79053	0.52308	0.112766	0.301123	0.033859	0.664446	0.181581	0.263472	0.049193	0.811854	0.174918	0.138733	0.329139	0.294674
3.241	0.077753	0.132093	0.787681	0.519379	0.109729	0.295158	0.033388	0.663312	0.180059	0.262481	0.049778	0.805188	0.172687	0.138994	0.324009	0.290157
3.2415	0.076582	0.131914	0.784727	0.515687	0.10674	0.289269	0.032928	0.662128	0.178498	0.261402	0.05035	0.798449	0.170463	0.139253	0.318878	0.285639
3.242	0.075434	0.131741	0.781667	0.512003	0.103799	0.283458	0.032478	0.660892	0.1769	0.260238	0.05091	0.791637	0.168246	0.13951	0.31375	0.281123
3.2425	0.074307	0.131573	0.778499	0.508328	0.100907	0.277727	0.032038	0.659607	0.175264	0.25899	0.051456	0.784756	0.166037	0.139764	0.308626	0.276608
3.243	0.073203	0.131408	0.775225	0.50466	0.098062	0.272075	0.031609	0.658271	0.173594	0.257661	0.05199	0.777808	0.163836	0.140016	0.303509	0.272099
3.2435	0.072121	0.131247	0.771843	0.501001	0.095265	0.266504	0.03119	0.656885	0.171891	0.256254	0.05251	0.770797	0.161642	0.140264	0.2984	0.267596
3.244	0.071062	0.131088	0.768354	0.497351	0.092517	0.261016	0.030782	0.65545	0.170155	0.25477	0.053017	0.763725	0.159458	0.14051	0.293302	0.263101
3.2445	0.070026	0.130931	0.764758	0.493708	0.089816	0.255609	0.030385	0.653964	0.168389	0.253213	0.053511	0.756595	0.157283	0.140752	0.288217	0.258616
3.245	0.069013	0.130775	0.761056	0.490074	0.087164	0.250287	0.029999	0.652428	0.166595	0.251585	0.053993	0.74941	0.155117	0.14099	0.283146	0.254144
3.2455	0.068023	0.130619	0.75725	0.486448	0.084559	0.245048	0.029623	0.650842	0.164774	0.249887	0.054461	0.742173	0.15296	0.141224	0.278092	0.249685
3.246	0.067057	0.130463	0.75334	0.48283	0.082003	0.239895	0.029259	0.649205	0.162927	0.248123	0.054918	0.734889	0.150814	0.141454	0.273057	0.245241
3.2465	0.066114	0.130305	0.749326	0.47922	0.079494	0.234827	0.028906	0.647517	0.161057	0.246294	0.055361	0.727559	0.148678	0.141679	0.268043	0.240815
3.247	0.065195	0.130145	0.74521	0.475618	0.077033	0.229845	0.028564	0.645777	0.159165	0.244403	0.055793	0.720189	0.146553	0.141899	0.263052	0.236408
3.2475	0.0643	0.129982	0.740992	0.472023	0.074619	0.22495	0.028233	0.643984	0.157252	0.242453	0.056212	0.712782	0.144439	0.142114	0.258085	0.232022
3.248	0.063429	0.129815	0.736672	0.468435	0.072253	0.220142	0.027913	0.642137	0.155321	0.240444	0.056619	0.705341	0.142337	0.142322	0.253145	0.227657
3.2485	0.062582	0.129644	0.732251	0.464853	0.069934	0.215421	0.027605	0.640235	0.153373	0.238381	0.057014	0.69787	0.140246	0.142525	0.248232	0.223316
3.249	0.061759	0.129468	0.727728	0.461277	0.067662	0.210789	0.027309	0.638277	0.151409	0.236265	0.057396	0.690372	0.138167	0.14272	0.243349	0.219
3.2495	0.06096	0.129285	0.723106	0.457707	0.065436	0.206244	0.027023	0.636261	0.149431	0.234098	0.057767	0.68285	0.1361	0.142908	0.238497	0.214711
3.25	0.060186	0.129096	0.718384	0.454142	0.063258	0.201787	0.026749	0.634187	0.14744	0.231882	0.058126	0.675308	0.134047	0.143088	0.233678	0.21045
3.2505	0.059435	0.128899	0.713564	0.45058	0.061125	0.197419	0.026487	0.632053	0.145438	0.229621	0.058472	0.667747	0.132006	0.143259	0.228893	0.206218
3.251	0.058709	0.128693	0.708649	0.447022	0.059039	0.193139	0.026236	0.629858	0.143427	0.227316	0.058807	0.660171	0.129979	0.143421	0.224143	0.202016
3.2515	0.058008	0.12848	0.703639	0.443467	0.056999	0.188947	0.025997	0.627602	0.141407	0.22497	0.05913	0.652582	0.127966	0.143574	0.21943	0.197847
3.252	0.05733	0.128257	0.698537	0.439912	0.055004	0.184845	0.025769	0.625284	0.13938	0.222585	0.059442	0.644983	0.125966	0.143716	0.214755	0.19371
3.2525	0.056677	0.128025	0.693343	0.436359	0.053055	0.18083	0.025553	0.622902	0.137347	0.220163	0.059741	0.637375	0.12398	0.143847	0.210119	0.189607
3.253	0.056048	0.127783	0.68806	0.432805	0.05115	0.176905	0.025348	0.620456	0.13531	0.217707	0.060029	0.62976	0.122009	0.143967	0.205524	0.185539
3.2535	0.055442	0.127531	0.682688	0.42925	0.049291	0.173067	0.025155	0.617944	0.13327	0.215218	0.060304	0.622142	0.120052	0.144075	0.20097	0.181508
3.254	0.054861	0.127269	0.677229	0.425693	0.047476	0.169319	0.024974	0.615366	0.131227	0.2127	0.060568	0.614521	0.11811	0.14417	0.196458	0.177513
3.2545	0.054304	0.126996	0.671684	0.422132	0.045705	0.165658	0.024804	0.612721	0.129183	0.210154	0.06082	0.606902	0.116183	0.144252	0.19199	0.173556
3.255	0.05377	0.126712	0.666056	0.418568	0.043977	0.162086	0.024645	0.610006	0.127139	0.207583	0.06106	0.599286	0.11427	0.14432	0.187566	0.169638
3.2555	0.05326	0.126417	0.660346	0.414999	0.042294	0.158602	0.024498	0.607222	0.125097	0.204988	0.061287	0.591675	0.112373	0.144375	0.183187	0.165759
3.256	0.052773	0.126111	0.654557	0.411423	0.040653	0.155206	0.024363	0.604368	0.123057	0.202372	0.061503	0.584072	0.110491	0.144415	0.178854	0.161921
3.2565	0.05231	0.125793	0.648692	0.407841	0.039054	0.151897	0.024239	0.601443	0.121019	0.199737	0.061706	0.576479	0.108624	0.144441	0.174569	0.158124
3.257	0.051869	0.125464	0.642752	0.404249	0.037498	0.148676	0.024127	0.598448	0.118987	0.197084	0.061896	0.568898	0.106772	0.144451	0.170331	0.154368
3.2575	0.051452	0.125123	0.636741	0.400649	0.035984	0.145542	0.024026	0.595381	0.116959	0.194417	0.062074	0.561332	0.104937	0.144446	0.166141	0.150654
3.258	0.051058	0.124771	0.630661	0.397039	0.034512	0.142495	0.023937	0.592245	0.114937	0.191736	0.06224	0.553781	0.103117	0.144426	0.162	0.146983
3.2585	0.050687	0.124409	0.624514	0.393418	0.03308	0.139534	0.023859	0.589038	0.112923	0.189043	0.062392	0.546248	0.101314	0.14439	0.157909	0.143355
3.259	0.050339	0.124036	0.618303	0.389786	0.031689	0.136659	0.023792	0.585761	0.110916	0.18634	0.062532	0.538735	0.099527	0.144337	0.153869	0.139771
3.2595	0.050013	0.123653	0.61203	0.386142	0.030338	0.13387	0.023737	0.582415	0.108918	0.18363	0.062659	0.531243	0.097758	0.144268	0.149879	0.136231
3.26	0.049709	0.12326	0.605696	0.382485	0.029027	0.131166	0.023693	0.579	0.10693	0.180913	0.062772	0.523774	0.096005	0.144183	0.14594	0.132736
3.2605	0.049428	0.122858	0.599305	0.378815	0.027755	0.128547	0.02366	0.575518	0.104952	0.178191	0.062872	0.516329	0.094271	0.14408	0.142054	0.129285
3.261	0.049169	0.122447	0.592857	0.375131	0.026522	0.126014	0.023639	0.571968	0.102985	0.175466	0.062959	0.508909	0.092554	0.14396	0.138219	0.12588
3.2615	0.048932	0.122028	0.586356	0.371432	0.025327	0.123565	0.023628	0.568353	0.10103	0.17274	0.063032	0.501517	0.090855	0.143823	0.134438	0.122521
3.262	0.048717	0.121601	0.579803	0.367717	0.02417	0.121199	0.023629	0.564674	0.099087	0.170013	0.063092	0.494152	0.089176	0.143668	0.130709	0.119208
3.2625	0.048523	0.121168	0.5732	0.363985	0.023051	0.118918	0.023641	0.560932	0.097157	0.167288	0.063137	0.486817	0.087515	0.143495	0.127034	0.115941
3.263	0.048351	0.120729	0.56655	0.360235	0.021969	0.11672	0.023663	0.557128	0.095242	0.164565	0.063168	0.479511	0.085873	0.143304	0.123412	0.11272
3.2635	0.048201	0.120284	0.559855	0.356466	0.020923	0.114605	0.023696	0.553263	0.09334	0.161846	0.063185	0.472237	0.084251	0.143095	0.119844	0.109546
3.264	0.048071	0.119833	0.553118	0.352678	0.019913	0.112573	0.023741	0.549339	0.091454	0.159133	0.063187	0.464994	0.08265	0.142866	0.11633	0.106419
3.2645	0.047962	0.119378	0.54634	0.348869	0.018939	0.110623	0.023795	0.545357	0.089583	0.156426	0.063174	0.457784	0.081069	0.14262	0.11287	0.103338
3.265	0.047874	0.118919	0.539525	0.345039	0.018001	0.108755	0.023861	0.541319	0.087729	0.153727	0.063146	0.450607	0.079509	0.142354	0.109464	0.100305
3.2655	0.047806	0.118456	0.532674	0.341187	0.017097	0.106967	0.023936	0.537225	0.085891	0.151037	0.063103	0.443464	0.07797	0.14207	0.106113	0.097318
3.266	0.047758	0.117989	0.525791	0.337312	0.016227	0.105261	0.024023	0.533077	0.08407	0.148357	0.063045	0.436354	0.076452	0.141767	0.102816	0.094379
3.2665	0.047731	0.11752	0.518878	0.333414	0.015391	0.103635	0.024119	0.528876	0.082267	0.145689	0.062971	0.429278	0.074957	0.141445	0.099574	0.091487
3.267	0.047723	0.117048	0.511937	0.329493	0.014589	0.10209	0.024226	0.524624	0.080482	0.143033	0.062882	0.422237	0.073484	0.141105	0.096387	0.088642
3.2675	0.047734	0.116573	0.504971	0.325547	0.013819	0.100624	0.024342	0.520322	0.078715	0.14039	0.062777	0.41523	0.072034	0.140747	0.093253	0.085844
3.268	0.047765	0.116097	0.497983	0.321578	0.013082	0.099238	0.024469	0.515971	0.076967	0.137762	0.062657	0.408258	0.070606	0.140371	0.090174	0.083093
3.2685	0.047814	0.115619	0.490976	0.317587	0.012377	0.097931	0.024605	0.511573	0.075238	0.135149	0.062522	0.401321	0.069202	0.139978	0.08715	0.080389
3.269	0.047883	0.11514	0.483951	0.313573	0.011704	0.096703	0.024751	0.507129	0.073528	0.132552	0.062372	0.39442	0.067821	0.139567	0.084179	0.077732
3.2695	0.047969	0.11466	0.476913	0.309539	0.011061	0.095553	0.024907	0.502639	0.071838	0.129973	0.062206	0.387556	0.066464	0.139139	0.081263	0.075122
3.27	0.048075	0.114179	0.469864	0.305486	0.010449	0.094482	0.025072	0.498105	0.070169	0.127412	0.062025	0.380728	0.065131	0.138695	0.078401	0.072559
3.2705	0.048198	0.113698	0.462807	0.301414	0.009868	0.093488	0.025246	0.493529	0.068519	0.124869	0.061829	0.373939	0.063822	0.138233	0.075592	0.070042
3.271	0.048339	0.113216	0.455745	0.297326	0.009316	0.092571	0.025429	0.488911	0.066891	0.122346	0.061617	0.367188	0.062537	0.137756	0.072837	0.067571
3.2715	0.048499	0.112735	0.448682	0.293225	0.008793	0.09173	0.025622	0.484254	0.065283	0.119844	0.061391	0.360478	0.061277	0.137262	0.070135	0.065146
3.272	0.048676	0.112254	0.441621	0.289111	0.008299	0.090966	0.025823	0.47956	0.063696	0.117363	0.061149	0.353807	0.060041	0.136753	0.067486	0.062767
3.2725	0.04887	0.111773	0.434564	0.284989	0.007833	0.090277	0.026033	0.47483	0.06213	0.114903	0.060893	0.347179	0.05883	0.136228	0.06489	0.060435
3.273	0.049082	0.111293	0.427515	0.280859	0.007395	0.089663	0.026251	0.470067	0.060586	0.112466	0.060622	0.340592	0.057643	0.135688	0.062346	0.058147
3.2735	0.049311	0.110814	0.420476	0.276724	0.006985	0.089124	0.026478	0.465272	0.059063	0.110052	0.060337	0.33405	0.056482	0.135133	0.059855	0.055905
3.274	0.049557	0.110335	0.413451	0.272587	0.006601	0.088658	0.026713	0.460447	0.057562	0.107662	0.060038	0.327552	0.055346	0.134564	0.057415	0.053707
3.2745	0.04982	0.109858	0.406442	0.268449	0.006244	0.088265	0.026955	0.455594	0.056083	0.105296	0.059725	0.321101	0.054235	0.13398	0.055027	0.051555
3.275	0.0501	0.109381	0.399452	0.264313	0.005913	0.087945	0.027206	0.450716	0.054626	0.102954	0.0594	0.314697	0.053149	0.133381	0.05269	0.049447
3.2755	0.050396	0.108906	0.392483	0.26018	0.005607	0.087697	0.027464	0.445813	0.053191	0.100638	0.059062	0.308342	0.052088	0.132768	0.050404	0.047383
3.276	0.050709	0.108431	0.385537	0.256053	0.005327	0.087521	0.027729	0.440887	0.051778	0.098347	0.058711	0.302037	0.051053	0.132142	0.048168	0.045362
3.2765	0.051039	0.107958	0.378618	0.251934	0.005071	0.087414	0.028002	0.435941	0.050387	0.096083	0.058349	0.295784	0.050042	0.131501	0.045982	0.043385
3.277	0.051385	0.107486	0.371728	0.247824	0.004839	0.087378	0.028281	0.430975	0.049018	0.093844	0.057974	0.289583	0.049057	0.130847	0.043846	0.041452
3.2775	0.051747	0.107015	0.364869	0.243725	0.004631	0.087411	0.028567	0.425992	0.047672	0.091633	0.057589	0.283437	0.048097	0.130179	0.041759	0.039561
3.278	0.052125	0.106546	0.358044	0.239638	0.004447	0.087512	0.028859	0.420994	0.046348	0.089449	0.057193	0.277345	0.047163	0.129498	0.039721	0.037713
3.2785	0.05252	0.106078	0.351255	0.235567	0.004285	0.087681	0.029158	0.415981	0.045046	0.087293	0.056786	0.271309	0.046253	0.128803	0.037731	0.035906
3.279	0.052931	0.105612	0.344504	0.231511	0.004146	0.087917	0.029463	0.410956	0.043767	0.085164	0.056369	0.265331	0.045369	0.128095	0.035789	0.034142
3.2795	0.053357	0.105147	0.337794	0.227472	0.004028	0.088218	0.029773	0.405921	0.04251	0.083063	0.055943	0.25941	0.04451	0.127374	0.033894	0.032418
3.28	0.0538	0.104683	0.331126	0.223453	0.003933	0.088585	0.030089	0.400876	0.041275	0.080991	0.055507	0.253548	0.043676	0.12664	0.032046	0.030736
3.2805	0.054258	0.104221	0.324504	0.219454	0.003858	0.089016	0.03041	0.395823	0.040063	0.078947	0.055063	0.247746	0.042867	0.125894	0.030245	0.029094
3.281	0.054732	0.10376	0.317928	0.215477	0.003804	0.089511	0.030737	0.390764	0.038873	0.076931	0.054611	0.242005	0.042082	0.125134	0.02849	0.027492
3.2815	0.055221	0.103301	0.311402	0.211524	0.003771	0.090067	0.031068	0.385701	0.037705	0.074945	0.054151	0.236325	0.041323	0.124363	0.02678	0.02593
3.282	0.055726	0.102844	0.304926	0.207595	0.003757	0.090686	0.031403	0.380633	0.036559	0.072988	0.053684	0.230707	0.040589	0.12358	0.025115	0.024406
3.2825	0.056247	0.102388	0.298502	0.203692	0.003762	0.091364	0.031743	0.375564	0.035435	0.071059	0.053211	0.225152	0.039879	0.122786	0.023495	0.022922
3.283	0.056783	0.101933	0.292133	0.199817	0.003787	0.092103	0.032087	0.370493	0.034333	0.06916	0.052731	0.219661	0.039194	0.121981	0.021919	0.021476
3.2835	0.057333	0.101479	0.285819	0.195969	0.00383	0.092899	0.032434	0.365422	0.033253	0.067291	0.052245	0.214234	0.038533	0.121165	0.020386	0.020068
3.284	0.0579	0.101026	0.279563	0.192151	0.003891	0.093753	0.032786	0.360353	0.032195	0.06545	0.051755	0.208872	0.037896	0.120339	0.018896	0.018697
3.2845	0.058481	0.100574	0.273365	0.188363	0.00397	0.094664	0.03314	0.355286	0.031158	0.063639	0.051259	0.203576	0.037284	0.119503	0.017449	0.017364
3.285	0.059076	0.100123	0.267228	0.184606	0.004065	0.095629	0.033498	0.350223	0.030143	0.061858	0.050759	0.198347	0.036696	0.118658	0.016044	0.016067
3.2855	0.059687	0.099673	0.261152	0.180882	0.004178	0.096649	0.033858	0.345164	0.029149	0.060106	0.050255	0.193185	0.036131	0.117804	0.01468	0.014805
3.286	0.060312	0.099223	0.255139	0.17719	0.004307	0.097722	0.034221	0.340111	0.028177	0.058383	0.049747	0.18809	0.035591	0.116942	0.013356	0.01358
3.2865	0.060952	0.098774	0.24919	0.173533	0.004452	0.098846	0.034586	0.335066	0.027226	0.05669	0.049236	0.183063	0.035073	0.116072	0.012073	0.012389
3.287	0.061606	0.098325	0.243305	0.16991	0.004612	0.100021	0.034954	0.330029	0.026296	0.055026	0.048723	0.178104	0.034579	0.115195	0.01083	0.011233
3.2875	0.062274	0.097877	0.237487	0.166323	0.004787	0.101245	0.035322	0.325002	0.025386	0.053391	0.048207	0.173215	0.034109	0.114311	0.009627	0.010111
3.288	0.062956	0.097428	0.231736	0.162772	0.004977	0.102517	0.035693	0.319987	0.024498	0.051786	0.047689	0.168394	0.033661	0.113422	0.008461	0.009023
3.2885	0.063651	0.096979	0.226053	0.159257	0.005181	0.103836	0.036064	0.314984	0.02363	0.05021	0.047169	0.163643	0.033236	0.112527	0.007334	0.007968
3.289	0.064361	0.09653	0.220438	0.15578	0.005399	0.1052	0.036437	0.309996	0.022782	0.048663	0.046648	0.158962	0.032834	0.111628	0.006245	0.006945
3.2895	0.065083	0.09608	0.214893	0.152341	0.00563	0.106608	0.03681	0.305022	0.021955	0.047145	0.046125	0.15435	0.032453	0.110725	0.005193	0.005955
3.29	0.065819	0.095629	0.209418	0.14894	0.005874	0.10806	0.037183	0.300066	0.021147	0.045655	0.045602	0.149809	0.032095	0.109818	0.004177	0.004996
3.2905	0.066569	0.095178	0.204015	0.145578	0.006131	0.109552	0.037556	0.295128	0.02036	0.044195	0.045079	0.145338	0.031759	0.108909	0.003197	0.004069
3.291	0.067331	0.094725	0.198683	0.142256	0.0064	0.111085	0.03793	0.290209	0.019592	0.042763	0.044555	0.140937	0.031445	0.107998	0.002253	0.003172
3.2915	0.068106	0.094271	0.193423	0.138974	0.00668	0.112656	0.038303	0.285311	0.018844	0.04136	0.044032	0.136607	0.031152	0.107086	0.001343	0.002305
3.292	0.068894	0.093816	0.188236	0.135731	0.006972	0.114264	0.038675	0.280436	0.018115	0.039985	0.043509	0.132347	0.03088	0.106172	0.000468	0.001468
3.2925	0.069694	0.093359	0.183122	0.132529	0.007275	0.115908	0.039046	0.275585	0.017405	0.038637	0.042987	0.128157	0.030629	0.105259	0	0.00066
3.293	0.070507	0.092901	0.178082	0.129368	0.007588	0.117586	0.039416	0.270759	0.016714	0.037318	0.042466	0.124039	0.030398	0.104345	0	0
3.2935	0.071332	0.092442	0.173116	0.126247	0.007911	0.119296	0.039785	0.26596	0.016042	0.036027	0.041946	0.119991	0.030188	0.103433	0	0
3.294	0.072169	0.091981	0.168224	0.123168	0.008244	0.121037	0.040152	0.261189	0.015388	0.034763	0.041428	0.116013	0.029998	0.102521	0	0
3.2945	0.073017	0.091518	0.163407	0.12013	0.008587	0.122808	0.040517	0.256447	0.014752	0.033526	0.040912	0.112105	0.029828	0.101612	0	0
3.295	0.073877	0.091054	0.158665	0.117134	0.008938	0.124607	0.040881	0.251735	0.014135	0.032317	0.040398	0.108268	0.029677	0.100706	0	0
3.2955	0.074748	0.090587	0.153997	0.114179	0.009297	0.126431	0.041242	0.247056	0.013535	0.031134	0.039886	0.104501	0.029546	0.099802	0	0
3.296	0.07563	0.090119	0.149405	0.111265	0.009664	0.12828	0.0416	0.242409	0.012953	0.029978	0.039376	0.100803	0.029433	0.098903	0	0
3.2965	0.076523	0.089647	0.144888	0.108393	0.010039	0.130152	0.041955	0.237796	0.012388	0.028848	0.038869	0.097175	0.029339	0.098008	0	0
3.297	0.077426	0.089173	0.140446	0.105563	0.010421	0.132046	0.042308	0.233218	0.011841	0.027745	0.038365	0.093617	0.029263	0.097118	0	0
3.2975	0.078339	0.088697	0.136079	0.102774	0.01081	0.133958	0.042657	0.228676	0.01131	0.026667	0.037864	0.090127	0.029205	0.096233	0	0
3.298	0.079262	0.088217	0.131787	0.100027	0.011205	0.135889	0.043002	0.224172	0.010796	0.025615	0.037366	0.086706	0.029165	0.095355	0	0
3.2985	0.080194	0.087734	0.127571	0.097321	0.011606	0.137836	0.043343	0.219707	0.010299	0.024588	0.036872	0.083353	0.029142	0.094482	0	0
3.299	0.081135	0.087247	0.12343	0.094657	0.012012	0.139798	0.04368	0.21528	0.009817	0.023586	0.036381	0.080068	0.029137	0.093617	0	0
3.2995	0.082086	0.086757	0.119363	0.092034	0.012424	0.141772	0.044012	0.210894	0.009352	0.022609	0.035894	0.076851	0.029147	0.09276	0	0
3.3	0.083044	0.086263	0.115372	0.089452	0.01284	0.143758	0.04434	0.20655	0.008902	0.021656	0.035411	0.0737	0.029175	0.091911	0	0
3.3005	0.084011	0.085765	0.111454	0.086911	0.01326	0.145752	0.044662	0.202247	0.008468	0.020728	0.034931	0.070617	0.029218	0.09107	0	0
3.301	0.084986	0.085262	0.107612	0.08441	0.013684	0.147755	0.044979	0.197986	0.00805	0.019824	0.034456	0.067599	0.029277	0.090239	0	0
3.3015	0.085969	0.084755	0.103843	0.08195	0.014112	0.149763	0.04529	0.19377	0.007646	0.018943	0.033986	0.064647	0.029351	0.089417	0	0
3.302	0.086959	0.084244	0.100148	0.07953	0.014542	0.151776	0.045594	0.189597	0.007257	0.018086	0.033519	0.061761	0.02944	0.088605	0	0
3.3025	0.087955	0.083728	0.096526	0.077151	0.014975	0.153792	0.045893	0.185469	0.006883	0.017252	0.033057	0.058939	0.029544	0.087804	0	0
3.303	0.088958	0.083207	0.092977	0.074811	0.015411	0.155808	0.046184	0.181388	0.006523	0.01644	0.0326	0.056181	0.029662	0.087014	0	0
3.3035	0.089966	0.08268	0.089501	0.072511	0.015848	0.157824	0.046469	0.177352	0.006176	0.015652	0.032148	0.053487	0.029795	0.086236	0	0
3.304	0.09098	0.082149	0.086097	0.07025	0.016286	0.159839	0.046747	0.173363	0.005844	0.014885	0.0317	0.050855	0.02994	0.08547	0	0
3.3045	0.091999	0.081612	0.082765	0.068029	0.016725	0.161849	0.047017	0.169422	0.005526	0.01414	0.031257	0.048287	0.030099	0.084716	0	0
3.305	0.093023	0.08107	0.079504	0.065847	0.017165	0.163854	0.04728	0.165529	0.00522	0.013417	0.030819	0.04578	0.030271	0.083975	0	0
3.3055	0.09405	0.080521	0.076314	0.063705	0.017605	0.165852	0.047536	0.161684	0.004928	0.012715	0.030386	0.043334	0.030456	0.083248	0	0
3.306	0.095081	0.079967	0.073195	0.061601	0.018045	0.167841	0.047784	0.157888	0.004648	0.012034	0.029957	0.040949	0.030652	0.082535	0	0
3.3065	0.096115	0.079408	0.070145	0.059536	0.018484	0.16982	0.048025	0.154142	0.004381	0.011374	0.029534	0.038623	0.030861	0.081836	0	0
3.307	0.097151	0.078842	0.067164	0.057509	0.018922	0.171788	0.048258	0.150446	0.004127	0.010734	0.029116	0.036357	0.031081	0.081151	0	0
3.3075	0.09819	0.07827	0.064252	0.055521	0.019359	0.173742	0.048483	0.1468	0.003884	0.010114	0.028703	0.03415	0.031313	0.080482	0	0
3.308	0.09923	0.077692	0.061408	0.053571	0.019793	0.175681	0.048701	0.143205	0.003653	0.009514	0.028295	0.032	0.031555	0.079827	0	0
3.3085	0.100271	0.077108	0.058632	0.05166	0.020225	0.177603	0.04891	0.139661	0.003434	0.008934	0.027892	0.029908	0.031807	0.079188	0	0
3.309	0.101313	0.076517	0.055923	0.049786	0.020654	0.179507	0.049111	0.136168	0.003226	0.008372	0.027495	0.027872	0.03207	0.078565	0	0
3.3095	0.102355	0.07592	0.053279	0.04795	0.02108	0.181392	0.049305	0.132727	0.003029	0.007829	0.027102	0.025892	0.032342	0.077958	0	0
3.31	0.103397	0.075317	0.050702	0.046152	0.021503	0.183256	0.04949	0.129338	0.002843	0.007305	0.026715	0.023968	0.032624	0.077367	0	0
3.3105	0.104437	0.074707	0.048189	0.044391	0.021922	0.185096	0.049666	0.126	0.002667	0.006799	0.026332	0.022097	0.032914	0.076793	0	0
3.311	0.105477	0.074091	0.04574	0.042667	0.022337	0.186913	0.049835	0.122716	0.002502	0.00631	0.025955	0.020281	0.033212	0.076236	0	0
3.3115	0.106514	0.073468	0.043356	0.04098	0.022747	0.188705	0.049995	0.119483	0.002347	0.005839	0.025582	0.018517	0.033519	0.075695	0	0
3.312	0.107548	0.072839	0.041033	0.039329	0.023152	0.190469	0.050147	0.116303	0.002202	0.005386	0.025215	0.016806	0.033833	0.075171	0	0
3.3125	0.108579	0.072203	0.038773	0.037715	0.023552	0.192206	0.050291	0.113175	0.002067	0.004949	0.024853	0.015146	0.034154	0.074664	0	0
3.313	0.109606	0.071561	0.036575	0.036137	0.023947	0.193913	0.050427	0.1101	0.001941	0.004529	0.024496	0.013537	0.034481	0.074175	0	0
3.3135	0.110629	0.070912	0.034437	0.034594	0.024335	0.19559	0.050556	0.107077	0.001824	0.004125	0.024143	0.011977	0.034815	0.073703	0	0
3.314	0.111647	0.070257	0.032359	0.033087	0.024718	0.197234	0.050676	0.104107	0.001717	0.003737	0.023796	0.010467	0.035155	0.073248	0	0
3.3145	0.112659	0.069595	0.03034	0.031615	0.025094	0.198845	0.050788	0.101189	0.001618	0.003365	0.023453	0.009006	0.0355	0.072811	0	0
3.315	0.113666	0.068927	0.028379	0.030178	0.025463	0.200422	0.050893	0.098323	0.001528	0.003009	0.023116	0.007592	0.035851	0.072391	0	0
3.3155	0.114667	0.068252	0.026476	0.028775	0.025826	0.201964	0.050991	0.09551	0.001446	0.002667	0.022783	0.006226	0.036206	0.071989	0	0
3.316	0.115661	0.067571	0.02463	0.027406	0.026181	0.20347	0.05108	0.092748	0.001372	0.002341	0.022455	0.004905	0.036565	0.071604	0	0
3.3165	0.116648	0.066884	0.022839	0.026072	0.026529	0.204938	0.051163	0.090038	0.001306	0.002029	0.022131	0.00363	0.036927	0.071237	0	0
3.317	0.117628	0.066191	0.021104	0.024771	0.026869	0.206369	0.051238	0.087379	0.001248	0.001732	0.021812	0.0024	0.037293	0.070887	0	0
3.3175	0.118601	0.065492	0.019423	0.023503	0.027201	0.207761	0.051306	0.084771	0.001198	0.001448	0.021498	0.001213	0.037662	0.070554	0	0
3.318	0.119565	0.064787	0.017796	0.022268	0.027524	0.209112	0.051367	0.082215	0.001154	0.001179	0.021189	7e-05	0.038034	0.070239	0	0
3.3185	0.120522	0.064077	0.016222	0.021065	0.027839	0.210423	0.051421	0.079709	0.001118	0.000923	0.020883	0	0.038407	0.069941	0	0
3.319	0.121471	0.063362	0.014699	0.019895	0.028145	0.211692	0.051467	0.077253	0.001088	0.00068	0.020583	0	0.038782	0.06966	0	0
3.3195	0.122411	0.062643	0.013227	0.018757	0.028442	0.212918	0.051508	0.074847	0.001066	0.000451	0.020286	0	0.039158	0.069397	0	0
