datacolumns 17
datarows 1027
time	addmag_r	bicfemlh_r	gaslat_r	gasmed_r	gmax_r	gmed_r	gra_r	perlong_r	recfem_r	sar_r	semimem_r	sol_r	tfl_r	tibant_r	vaslat_r	vasmed_r
2.382	0.287244	0.023559	0.017158	0.009597	0.010474	0.045549	0.113511	0.038473	0.009647	0.131121	0.06503	0.00976	0.033191	0.204816	0.003998	0.004762
2.3825	0.286174	0.023385	0.017067	0.009593	0.01045	0.045259	0.111877	0.038359	0.009604	0.130351	0.065227	0.009713	0.033035	0.205582	0.003951	0.004744
2.383	0.285044	0.02322	0.016977	0.009589	0.010429	0.04497	0.110252	0.038241	0.009561	0.129575	0.065427	0.009667	0.032878	0.206354	0.003905	0.004726
2.3835	0.283857	0.023062	0.016886	0.009584	0.010411	0.044681	0.108636	0.038119	0.009517	0.128791	0.065628	0.009621	0.032718	0.207129	0.003858	0.004707
2.384	0.282612	0.022912	0.016797	0.009578	0.010395	0.044394	0.107029	0.037993	0.009472	0.128001	0.065831	0.009576	0.032558	0.207907	0.003811	0.004688
2.3845	0.28131	0.02277	0.016707	0.009572	0.010382	0.044109	0.105432	0.037863	0.009427	0.127204	0.066036	0.009531	0.032396	0.208688	0.003763	0.004669
2.385	0.279952	0.022636	0.016618	0.009566	0.010373	0.043825	0.103843	0.03773	0.009381	0.1264	0.066242	0.009487	0.032232	0.209472	0.003716	0.00465
2.3855	0.278538	0.022509	0.016529	0.009558	0.010366	0.043543	0.102263	0.037593	0.009335	0.12559	0.06645	0.009444	0.032068	0.210257	0.003668	0.004631
2.386	0.277069	0.02239	0.01644	0.00955	0.010362	0.043263	0.100693	0.037453	0.009288	0.124773	0.066659	0.009401	0.031902	0.211042	0.003621	0.004611
2.3865	0.275546	0.022278	0.016352	0.009542	0.010362	0.042985	0.099131	0.03731	0.00924	0.123949	0.06687	0.009358	0.031734	0.211828	0.003573	0.004591
2.387	0.27397	0.022173	0.016264	0.009533	0.010365	0.04271	0.097578	0.037164	0.009192	0.123119	0.067081	0.009316	0.031566	0.212613	0.003525	0.004571
2.3875	0.272344	0.022076	0.016176	0.009523	0.01037	0.042437	0.096035	0.037016	0.009144	0.122282	0.067294	0.009275	0.031396	0.213396	0.003477	0.004551
2.388	0.270667	0.021986	0.016089	0.009512	0.01038	0.042166	0.094501	0.036865	0.009094	0.121439	0.067508	0.009234	0.031225	0.214177	0.003429	0.004531
2.3885	0.268942	0.021902	0.016003	0.009501	0.010392	0.041898	0.092976	0.036711	0.009044	0.120589	0.067722	0.009194	0.031053	0.214955	0.003381	0.00451
2.389	0.267171	0.021826	0.015916	0.00949	0.010407	0.041634	0.091461	0.036555	0.008994	0.119733	0.067937	0.009154	0.03088	0.215729	0.003333	0.004489
2.3895	0.265355	0.021756	0.01583	0.009477	0.010426	0.041372	0.089956	0.036396	0.008943	0.118871	0.068153	0.009115	0.030706	0.216499	0.003285	0.004469
2.39	0.263497	0.021693	0.015745	0.009464	0.010448	0.041113	0.088461	0.036236	0.008892	0.118002	0.068369	0.009076	0.03053	0.217262	0.003237	0.004447
2.3905	0.261597	0.021637	0.015659	0.009451	0.010474	0.040858	0.086975	0.036074	0.00884	0.117127	0.068586	0.009037	0.030354	0.218019	0.00319	0.004426
2.391	0.259658	0.021587	0.015575	0.009437	0.010502	0.040606	0.0855	0.035909	0.008787	0.116246	0.068803	0.008999	0.030177	0.218768	0.003143	0.004405
2.3915	0.257682	0.021544	0.01549	0.009422	0.010535	0.040358	0.084035	0.035743	0.008734	0.115358	0.06902	0.008961	0.029999	0.21951	0.003096	0.004383
2.392	0.25567	0.021507	0.015406	0.009406	0.01057	0.040113	0.08258	0.035576	0.00868	0.114463	0.069238	0.008924	0.02982	0.220241	0.003049	0.004361
2.3925	0.253623	0.021477	0.015322	0.00939	0.010609	0.039872	0.081136	0.035407	0.008626	0.113562	0.069456	0.008887	0.02964	0.220963	0.003002	0.00434
2.393	0.251543	0.021453	0.015239	0.009373	0.010651	0.039635	0.079702	0.035236	0.008572	0.112654	0.069674	0.00885	0.029459	0.221674	0.002956	0.004318
2.3935	0.249433	0.021435	0.015155	0.009355	0.010697	0.039402	0.078278	0.035064	0.008517	0.11174	0.069892	0.008814	0.029277	0.222372	0.00291	0.004296
2.394	0.247292	0.021424	0.015072	0.009337	0.010746	0.039172	0.076866	0.03489	0.008461	0.110819	0.070109	0.008778	0.029094	0.223056	0.002864	0.004274
2.3945	0.245124	0.021418	0.01499	0.009318	0.010799	0.038947	0.075465	0.034715	0.008405	0.109891	0.070326	0.008743	0.02891	0.223727	0.002819	0.004252
2.395	0.24293	0.021419	0.014907	0.009298	0.010855	0.038726	0.074075	0.034539	0.008349	0.108956	0.070542	0.008708	0.028726	0.224381	0.002774	0.00423
2.3955	0.240711	0.021426	0.014824	0.009278	0.010914	0.03851	0.072696	0.034362	0.008292	0.108015	0.070758	0.008673	0.02854	0.225019	0.00273	0.004207
2.396	0.238468	0.021438	0.014742	0.009257	0.010977	0.038297	0.071329	0.034184	0.008235	0.107066	0.070974	0.008639	0.028354	0.22564	0.002686	0.004185
2.3965	0.236204	0.021456	0.01466	0.009235	0.011043	0.038089	0.069975	0.034006	0.008177	0.106111	0.071188	0.008605	0.028167	0.226243	0.002642	0.004163
2.397	0.233921	0.02148	0.014578	0.009212	0.011113	0.037886	0.068632	0.033826	0.008119	0.105149	0.071402	0.008571	0.027979	0.226826	0.002599	0.004141
2.3975	0.231619	0.021509	0.014496	0.009189	0.011186	0.037687	0.067302	0.033646	0.008061	0.104181	0.071615	0.008538	0.027791	0.22739	0.002556	0.004118
2.398	0.2293	0.021544	0.014415	0.009165	0.011262	0.037492	0.065985	0.033465	0.008003	0.103206	0.071827	0.008505	0.027601	0.227933	0.002514	0.004096
2.3985	0.226965	0.021584	0.014333	0.00914	0.011342	0.037302	0.06468	0.033284	0.007945	0.102224	0.072038	0.008472	0.027411	0.228456	0.002473	0.004074
2.399	0.224617	0.02163	0.014252	0.009114	0.011425	0.037116	0.063389	0.033103	0.007887	0.101236	0.072247	0.00844	0.02722	0.228956	0.002432	0.004051
2.3995	0.222256	0.021681	0.01417	0.009088	0.011512	0.036935	0.062111	0.032921	0.007828	0.100242	0.072456	0.008408	0.027028	0.229434	0.002391	0.004029
2.4	0.219884	0.021737	0.014089	0.009061	0.011602	0.036759	0.060846	0.032739	0.00777	0.099242	0.072664	0.008376	0.026835	0.229889	0.002351	0.004007
2.4005	0.217503	0.021798	0.014008	0.009034	0.011695	0.036586	0.059595	0.032557	0.007712	0.098237	0.07287	0.008345	0.026641	0.23032	0.002312	0.003985
2.401	0.215113	0.021865	0.013927	0.009005	0.011792	0.036419	0.058358	0.032375	0.007654	0.097227	0.073074	0.008314	0.026447	0.230725	0.002274	0.003962
2.4015	0.212717	0.021937	0.013847	0.008976	0.011891	0.036256	0.057135	0.032193	0.007596	0.096212	0.073277	0.008283	0.026252	0.231105	0.002236	0.00394
2.402	0.210316	0.022013	0.013766	0.008947	0.011994	0.036097	0.055926	0.032012	0.007538	0.095193	0.073479	0.008253	0.026056	0.231457	0.002198	0.003918
2.4025	0.207911	0.022095	0.013686	0.008916	0.012101	0.035943	0.054732	0.031831	0.007481	0.09417	0.073679	0.008223	0.025859	0.231781	0.002162	0.003896
2.403	0.205503	0.022182	0.013605	0.008885	0.01221	0.035794	0.053551	0.03165	0.007424	0.093144	0.073877	0.008194	0.025662	0.232076	0.002126	0.003875
2.4035	0.203094	0.022273	0.013525	0.008854	0.012323	0.035649	0.052386	0.03147	0.007368	0.092115	0.074073	0.008165	0.025464	0.23234	0.002091	0.003853
2.404	0.200685	0.022369	0.013445	0.008821	0.012439	0.035509	0.051235	0.031291	0.007312	0.091083	0.074268	0.008136	0.025266	0.232573	0.002056	0.003831
2.4045	0.198278	0.022471	0.013365	0.008788	0.012558	0.035373	0.050098	0.031112	0.007256	0.09005	0.07446	0.008108	0.025067	0.232773	0.002023	0.00381
2.405	0.195874	0.022577	0.013285	0.008755	0.01268	0.035242	0.048977	0.030934	0.007201	0.089014	0.074651	0.00808	0.024868	0.23294	0.00199	0.003789
2.4055	0.193473	0.022687	0.013206	0.00872	0.012806	0.035117	0.04787	0.030758	0.007147	0.087977	0.074839	0.008053	0.024669	0.233073	0.001958	0.003768
2.406	0.191078	0.022803	0.013127	0.008685	0.012935	0.034996	0.046779	0.030582	0.007093	0.086939	0.075026	0.008026	0.024469	0.233171	0.001926	0.003747
2.4065	0.18869	0.022923	0.013047	0.00865	0.013066	0.034881	0.045702	0.030407	0.00704	0.085901	0.07521	0.008	0.024269	0.233233	0.001896	0.003726
2.407	0.186309	0.023048	0.012968	0.008613	0.013201	0.034772	0.04464	0.030233	0.006988	0.084862	0.075391	0.007974	0.024068	0.233261	0.001866	0.003706
2.4075	0.183937	0.023177	0.012889	0.008576	0.013339	0.034669	0.043594	0.03006	0.006936	0.083824	0.07557	0.007949	0.023868	0.233253	0.001838	0.003686
2.408	0.181575	0.023311	0.01281	0.008538	0.013481	0.034572	0.042563	0.029889	0.006885	0.082786	0.075747	0.007924	0.023668	0.233209	0.00181	0.003666
2.4085	0.179225	0.02345	0.012732	0.0085	0.013625	0.034482	0.041547	0.029719	0.006835	0.08175	0.07592	0.0079	0.023468	0.23313	0.001783	0.003647
2.409	0.176886	0.023592	0.012653	0.008461	0.013773	0.034398	0.040546	0.02955	0.006786	0.080714	0.076091	0.007876	0.023268	0.233016	0.001757	0.003628
2.4095	0.174561	0.023739	0.012575	0.008421	0.013924	0.034322	0.039561	0.029382	0.006738	0.079681	0.076259	0.007852	0.023068	0.232867	0.001732	0.003609
2.41	0.17225	0.023891	0.012497	0.00838	0.014078	0.034253	0.038591	0.029216	0.006691	0.07865	0.076424	0.007829	0.022869	0.232683	0.001707	0.003591
2.4105	0.169955	0.024046	0.012419	0.008339	0.014235	0.034192	0.037636	0.029051	0.006645	0.077621	0.076586	0.007807	0.022671	0.232464	0.001684	0.003573
2.411	0.167675	0.024206	0.012341	0.008297	0.014396	0.034139	0.036696	0.028888	0.0066	0.076595	0.076745	0.007785	0.022474	0.23221	0.001662	0.003555
2.4115	0.165412	0.024369	0.012263	0.008254	0.014559	0.034094	0.035772	0.028726	0.006556	0.075572	0.076901	0.007763	0.022277	0.231923	0.001641	0.003538
2.412	0.163167	0.024537	0.012186	0.00821	0.014726	0.034058	0.034863	0.028566	0.006513	0.074553	0.077054	0.007742	0.022082	0.231602	0.001621	0.003521
2.4125	0.16094	0.024708	0.012108	0.008166	0.014896	0.034031	0.033969	0.028408	0.006472	0.073538	0.077204	0.007721	0.021888	0.231249	0.001601	0.003504
2.413	0.158732	0.024883	0.012031	0.008121	0.015069	0.034014	0.033091	0.028251	0.006432	0.072526	0.077351	0.007701	0.021696	0.230863	0.001583	0.003488
2.4135	0.156545	0.025062	0.011955	0.008076	0.015246	0.034006	0.032227	0.028096	0.006393	0.071519	0.077494	0.007681	0.021506	0.230447	0.001566	0.003472
2.414	0.154378	0.025245	0.011878	0.008029	0.015425	0.034007	0.031379	0.027943	0.006355	0.070516	0.077635	0.007662	0.021317	0.229999	0.00155	0.003457
2.4145	0.152232	0.025431	0.011802	0.007982	0.015608	0.034019	0.030545	0.027793	0.006318	0.069518	0.077773	0.007643	0.021131	0.229522	0.001535	0.003443
2.415	0.150107	0.025621	0.011726	0.007935	0.015794	0.034042	0.029727	0.027644	0.006283	0.068525	0.077907	0.007625	0.020946	0.229014	0.001522	0.003429
2.4155	0.148005	0.025814	0.01165	0.007886	0.015983	0.034075	0.028923	0.027497	0.00625	0.067538	0.078038	0.007606	0.020764	0.228478	0.001509	0.003415
2.416	0.145926	0.026011	0.011574	0.007837	0.016175	0.034119	0.028135	0.027352	0.006218	0.066555	0.078167	0.007589	0.020584	0.227913	0.001497	0.003402
2.4165	0.14387	0.026211	0.011499	0.007788	0.016371	0.034175	0.027361	0.02721	0.006187	0.065579	0.078292	0.007571	0.020407	0.22732	0.001487	0.003389
2.417	0.141838	0.026415	0.011424	0.007737	0.016569	0.034242	0.026602	0.027071	0.006158	0.064608	0.078414	0.007554	0.020232	0.226699	0.001478	0.003378
2.4175	0.139829	0.026622	0.01135	0.007686	0.01677	0.034321	0.025858	0.026934	0.00613	0.063644	0.078533	0.007538	0.020061	0.226052	0.00147	0.003366
2.418	0.137846	0.026832	0.011276	0.007635	0.016975	0.034412	0.025128	0.026799	0.006104	0.062686	0.078649	0.007521	0.019892	0.225378	0.001463	0.003356
2.4185	0.135887	0.027045	0.011202	0.007583	0.017182	0.034515	0.024413	0.026668	0.00608	0.061735	0.078762	0.007505	0.019726	0.224678	0.001457	0.003346
2.419	0.133952	0.027261	0.011129	0.00753	0.017393	0.034631	0.023712	0.026539	0.006057	0.060791	0.078871	0.007489	0.019564	0.223953	0.001453	0.003336
2.4195	0.132044	0.02748	0.011056	0.007477	0.017606	0.03476	0.023026	0.026413	0.006036	0.059854	0.078977	0.007474	0.019404	0.223204	0.001449	0.003328
2.42	0.130161	0.027702	0.010983	0.007423	0.017822	0.034902	0.022354	0.02629	0.006017	0.058925	0.07908	0.007459	0.019248	0.222431	0.001448	0.00332
2.4205	0.128303	0.027927	0.010911	0.007369	0.018041	0.035057	0.021696	0.026171	0.005999	0.058003	0.079179	0.007444	0.019096	0.221634	0.001447	0.003312
2.421	0.126472	0.028155	0.01084	0.007314	0.018262	0.035226	0.021053	0.026054	0.005983	0.057089	0.079274	0.00743	0.018947	0.220815	0.001447	0.003306
2.4215	0.124667	0.028385	0.010768	0.007258	0.018487	0.035409	0.020423	0.025941	0.005969	0.056184	0.079365	0.007416	0.018802	0.219973	0.001449	0.0033
2.422	0.122888	0.028617	0.010698	0.007202	0.018713	0.035605	0.019808	0.025831	0.005956	0.055286	0.079452	0.007402	0.01866	0.219109	0.001452	0.003295
2.4225	0.121136	0.028852	0.010628	0.007146	0.018943	0.035816	0.019206	0.025725	0.005946	0.054397	0.079535	0.007388	0.018522	0.218224	0.001457	0.003291
2.423	0.11941	0.02909	0.010558	0.007089	0.019174	0.036042	0.018617	0.025621	0.005937	0.053516	0.079613	0.007375	0.018388	0.217318	0.001463	0.003287
2.4235	0.11771	0.029329	0.010489	0.007031	0.019409	0.036283	0.018043	0.025522	0.005931	0.052645	0.079686	0.007361	0.018258	0.216392	0.00147	0.003285
2.424	0.116038	0.02957	0.01042	0.006973	0.019645	0.036538	0.017482	0.025426	0.005926	0.051782	0.079754	0.007348	0.018132	0.215445	0.001478	0.003283
2.4245	0.114391	0.029813	0.010352	0.006915	0.019884	0.036809	0.016934	0.025333	0.005923	0.050928	0.079817	0.007336	0.01801	0.214479	0.001488	0.003282
2.425	0.112772	0.030058	0.010284	0.006856	0.020125	0.037096	0.016399	0.025244	0.005922	0.050084	0.079874	0.007323	0.017893	0.213494	0.001499	0.003282
2.4255	0.111178	0.030304	0.010217	0.006797	0.020368	0.037398	0.015877	0.025159	0.005923	0.049248	0.079926	0.007311	0.017779	0.21249	0.001512	0.003283
2.426	0.109611	0.030551	0.01015	0.006737	0.020613	0.037717	0.015368	0.025077	0.005925	0.048423	0.079971	0.007299	0.01767	0.211469	0.001526	0.003285
2.4265	0.108071	0.0308	0.010084	0.006676	0.020861	0.038052	0.014872	0.024999	0.00593	0.047607	0.080009	0.007287	0.017565	0.21043	0.001541	0.003288
2.427	0.106557	0.031049	0.010018	0.006616	0.02111	0.038403	0.014389	0.024924	0.005937	0.046802	0.080041	0.007276	0.017464	0.209373	0.001558	0.003292
2.4275	0.105068	0.031299	0.009953	0.006554	0.021361	0.038772	0.013918	0.024854	0.005946	0.046006	0.080066	0.007265	0.017368	0.2083	0.001577	0.003296
2.428	0.103606	0.03155	0.009888	0.006493	0.021615	0.039157	0.01346	0.024787	0.005957	0.045221	0.080083	0.007254	0.017276	0.207211	0.001596	0.003302
2.4285	0.10217	0.031801	0.009824	0.00643	0.02187	0.03956	0.013013	0.024724	0.00597	0.044447	0.080092	0.007243	0.017189	0.206106	0.001618	0.003309
2.429	0.100759	0.032052	0.00976	0.006368	0.022127	0.03998	0.012579	0.024664	0.005985	0.043682	0.080093	0.007232	0.017106	0.204986	0.00164	0.003317
2.4295	0.099374	0.032303	0.009696	0.006305	0.022385	0.040419	0.012156	0.024609	0.006002	0.042929	0.080085	0.007221	0.017028	0.203852	0.001665	0.003325
2.43	0.098015	0.032554	0.009633	0.006241	0.022646	0.040875	0.011746	0.024557	0.006021	0.042187	0.080069	0.007211	0.016954	0.202704	0.00169	0.003335
2.4305	0.096681	0.032804	0.00957	0.006177	0.022908	0.041349	0.011347	0.024509	0.006042	0.041455	0.080043	0.0072	0.016885	0.201544	0.001718	0.003346
2.431	0.095373	0.033054	0.009508	0.006112	0.023171	0.041841	0.010959	0.024465	0.006065	0.040735	0.080009	0.00719	0.016821	0.200372	0.001747	0.003359
2.4315	0.09409	0.033303	0.009447	0.006047	0.023437	0.042352	0.010583	0.024425	0.00609	0.040026	0.079966	0.00718	0.016761	0.199188	0.001777	0.003372
2.432	0.092833	0.033551	0.009385	0.005981	0.023703	0.042882	0.010218	0.024389	0.006118	0.039328	0.079913	0.00717	0.016705	0.197994	0.001809	0.003386
2.4325	0.091601	0.033798	0.009325	0.005915	0.023971	0.04343	0.009863	0.024356	0.006147	0.038641	0.079852	0.00716	0.016655	0.196789	0.001843	0.003402
2.433	0.090395	0.034044	0.009264	0.005849	0.024241	0.043998	0.00952	0.024328	0.006179	0.037966	0.079782	0.00715	0.016609	0.195575	0.001878	0.003419
2.4335	0.089215	0.034288	0.009204	0.005781	0.024512	0.044584	0.009187	0.024303	0.006213	0.037302	0.079703	0.00714	0.016567	0.194352	0.001915	0.003437
2.434	0.08806	0.034531	0.009145	0.005714	0.024784	0.04519	0.008865	0.024282	0.006249	0.03665	0.079616	0.00713	0.01653	0.193121	0.001953	0.003456
2.4345	0.08693	0.034772	0.009085	0.005645	0.025057	0.045816	0.008553	0.024265	0.006287	0.036009	0.07952	0.007121	0.016498	0.191883	0.001993	0.003476
2.435	0.085826	0.035012	0.009027	0.005576	0.025332	0.046461	0.008251	0.024252	0.006327	0.03538	0.079416	0.007111	0.01647	0.190638	0.002035	0.003498
2.4355	0.084748	0.03525	0.008968	0.005507	0.025607	0.047127	0.007959	0.024243	0.00637	0.034762	0.079305	0.0071	0.016446	0.189387	0.002079	0.00352
2.436	0.083696	0.035487	0.00891	0.005437	0.025884	0.047813	0.007677	0.024237	0.006415	0.034156	0.079186	0.00709	0.016428	0.188131	0.002124	0.003545
2.4365	0.082669	0.035723	0.008852	0.005366	0.026161	0.048519	0.007405	0.024235	0.006461	0.033562	0.079061	0.00708	0.016413	0.186871	0.002172	0.00357
2.437	0.081669	0.035957	0.008795	0.005295	0.026439	0.049246	0.007143	0.024237	0.006511	0.032979	0.078929	0.007069	0.016404	0.185608	0.002221	0.003597
2.4375	0.080694	0.03619	0.008738	0.005223	0.026718	0.049995	0.00689	0.024242	0.006562	0.032408	0.07879	0.007059	0.016398	0.184342	0.002272	0.003625
2.438	0.079745	0.036422	0.008682	0.00515	0.026998	0.050764	0.006647	0.024251	0.006616	0.031848	0.078645	0.007048	0.016398	0.183074	0.002324	0.003654
2.4385	0.078822	0.036653	0.008625	0.005077	0.027278	0.051555	0.006412	0.024264	0.006672	0.0313	0.078495	0.007037	0.016401	0.181805	0.002379	0.003685
2.439	0.077924	0.036883	0.00857	0.005003	0.027559	0.052368	0.006187	0.02428	0.00673	0.030764	0.078339	0.007025	0.01641	0.180534	0.002436	0.003717
2.4395	0.077053	0.037113	0.008515	0.004928	0.02784	0.053202	0.00597	0.024299	0.006791	0.030239	0.078178	0.007013	0.016423	0.179264	0.002495	0.003751
2.44	0.076206	0.037343	0.00846	0.004853	0.028121	0.054059	0.005763	0.024322	0.006854	0.029726	0.078012	0.007001	0.01644	0.177994	0.002555	0.003786
2.4405	0.075386	0.037572	0.008405	0.004776	0.028402	0.054938	0.005564	0.024349	0.00692	0.029224	0.07784	0.006988	0.016462	0.176725	0.002618	0.003822
2.441	0.07459	0.037802	0.008351	0.004699	0.028684	0.055839	0.005373	0.024379	0.006987	0.028734	0.077664	0.006975	0.016488	0.175457	0.002683	0.00386
2.4415	0.07382	0.038032	0.008298	0.004622	0.028966	0.056763	0.005191	0.024412	0.007057	0.028255	0.077484	0.006962	0.016519	0.174191	0.002751	0.0039
2.442	0.073074	0.038262	0.008245	0.004543	0.029248	0.057709	0.005016	0.024448	0.00713	0.027788	0.077299	0.006948	0.016554	0.172926	0.00282	0.003941
2.4425	0.072353	0.038493	0.008192	0.004463	0.02953	0.058678	0.00485	0.024488	0.007205	0.027332	0.07711	0.006933	0.016594	0.171665	0.002891	0.003983
2.443	0.071657	0.038725	0.00814	0.004383	0.029812	0.059671	0.004692	0.02453	0.007282	0.026887	0.076917	0.006918	0.016638	0.170406	0.002965	0.004027
2.4435	0.070984	0.038958	0.008088	0.004302	0.030094	0.060686	0.004541	0.024576	0.007361	0.026453	0.076719	0.006902	0.016687	0.16915	0.003042	0.004072
2.444	0.070336	0.039192	0.008037	0.00422	0.030376	0.061725	0.004399	0.024624	0.007443	0.02603	0.076518	0.006886	0.01674	0.167897	0.00312	0.004119
2.4445	0.069711	0.039427	0.007986	0.004137	0.030657	0.062787	0.004263	0.024676	0.007527	0.025619	0.076313	0.006868	0.016798	0.166648	0.003201	0.004167
2.445	0.06911	0.039663	0.007935	0.004053	0.030939	0.063873	0.004135	0.02473	0.007614	0.025218	0.076104	0.00685	0.01686	0.165402	0.003284	0.004217
2.4455	0.068532	0.039901	0.007885	0.003968	0.03122	0.064982	0.004014	0.024787	0.007703	0.024828	0.07589	0.006832	0.016927	0.16416	0.00337	0.004268
2.446	0.067976	0.040141	0.007836	0.003882	0.031501	0.066116	0.0039	0.024847	0.007794	0.024449	0.075674	0.006813	0.016998	0.162922	0.003458	0.004321
2.4465	0.067443	0.040382	0.007787	0.003795	0.031781	0.067273	0.003793	0.024909	0.007888	0.02408	0.075453	0.006792	0.017074	0.161688	0.003549	0.004376
2.447	0.066931	0.040626	0.007738	0.003707	0.032061	0.068455	0.003693	0.024974	0.007984	0.023722	0.075229	0.006772	0.017155	0.160458	0.003643	0.004432
2.4475	0.066442	0.040871	0.007689	0.003617	0.03234	0.069661	0.0036	0.025042	0.008083	0.023374	0.075001	0.00675	0.01724	0.159232	0.003739	0.004489
2.448	0.065973	0.041118	0.007641	0.003527	0.032618	0.070891	0.003513	0.025111	0.008183	0.023036	0.074769	0.006727	0.01733	0.15801	0.003837	0.004548
2.4485	0.065525	0.041368	0.007593	0.003436	0.032896	0.072146	0.003432	0.025184	0.008286	0.022709	0.074534	0.006704	0.017424	0.156792	0.003938	0.004609
2.449	0.065098	0.041619	0.007546	0.003344	0.033173	0.073425	0.003357	0.025258	0.008392	0.022391	0.074295	0.00668	0.017523	0.155579	0.004043	0.004671
2.4495	0.06469	0.041873	0.007499	0.00325	0.033448	0.074728	0.003289	0.025335	0.008499	0.022083	0.074053	0.006654	0.017627	0.154371	0.004149	0.004734
2.45	0.064302	0.042129	0.007452	0.003155	0.033723	0.076056	0.003226	0.025414	0.008609	0.021786	0.073808	0.006628	0.017736	0.153167	0.004259	0.0048
2.4505	0.063934	0.042388	0.007405	0.003059	0.033996	0.077409	0.00317	0.025495	0.008722	0.021498	0.073559	0.006601	0.017849	0.151969	0.004371	0.004866
2.451	0.063584	0.042649	0.007359	0.002962	0.034268	0.078786	0.003118	0.025578	0.008836	0.021219	0.073307	0.006573	0.017967	0.150776	0.004487	0.004934
2.4515	0.063252	0.042913	0.007313	0.002864	0.034538	0.080188	0.003073	0.025664	0.008952	0.02095	0.073052	0.006544	0.01809	0.149588	0.004605	0.005004
2.452	0.062939	0.04318	0.007267	0.002764	0.034807	0.081614	0.003033	0.025752	0.009071	0.02069	0.072794	0.006514	0.018218	0.148407	0.004726	0.005075
2.4525	0.062642	0.043449	0.007222	0.002663	0.035074	0.083065	0.002998	0.025843	0.009192	0.020439	0.072533	0.006482	0.018351	0.147231	0.00485	0.005148
2.453	0.062363	0.043721	0.007176	0.002561	0.035339	0.084541	0.002968	0.025936	0.009315	0.020198	0.072268	0.00645	0.018489	0.146062	0.004977	0.005222
2.4535	0.0621	0.043995	0.007131	0.002457	0.035603	0.086041	0.002944	0.026032	0.00944	0.019965	0.072001	0.006417	0.018631	0.144899	0.005107	0.005297
2.454	0.061853	0.044273	0.007085	0.002352	0.035864	0.087566	0.002924	0.02613	0.009567	0.019741	0.07173	0.006382	0.018779	0.143743	0.00524	0.005374
2.4545	0.061621	0.044553	0.00704	0.002246	0.036123	0.089115	0.00291	0.026232	0.009696	0.019526	0.071457	0.006347	0.018931	0.142595	0.005377	0.005453
2.455	0.061404	0.044835	0.006995	0.002138	0.036379	0.090689	0.002899	0.026337	0.009828	0.01932	0.07118	0.00631	0.019089	0.141454	0.005516	0.005533
2.4555	0.061201	0.045121	0.00695	0.002029	0.036634	0.092288	0.002894	0.026444	0.009961	0.019121	0.0709	0.006272	0.019251	0.140321	0.005658	0.005614
2.456	0.061013	0.045409	0.006905	0.001918	0.036886	0.093911	0.002893	0.026555	0.010096	0.018931	0.070617	0.006234	0.019419	0.139196	0.005804	0.005697
2.4565	0.060837	0.045699	0.00686	0.001806	0.037135	0.095559	0.002896	0.026669	0.010232	0.01875	0.070331	0.006194	0.019591	0.138079	0.005953	0.005781
2.457	0.060674	0.045993	0.006815	0.001693	0.037382	0.097231	0.002903	0.026787	0.010371	0.018576	0.070042	0.006152	0.019769	0.13697	0.006105	0.005866
2.4575	0.060524	0.046289	0.00677	0.001578	0.037626	0.098928	0.002915	0.026908	0.010511	0.018411	0.06975	0.00611	0.019951	0.13587	0.00626	0.005952
2.458	0.060385	0.046587	0.006725	0.001462	0.037866	0.10065	0.002931	0.027033	0.010653	0.018253	0.069455	0.006067	0.020138	0.134778	0.006419	0.00604
2.4585	0.060257	0.046888	0.00668	0.001344	0.038104	0.102396	0.00295	0.027161	0.010797	0.018103	0.069156	0.006022	0.020331	0.133696	0.006581	0.00613
2.459	0.060141	0.047192	0.006634	0.001224	0.038338	0.104167	0.002973	0.027293	0.010942	0.01796	0.068855	0.005976	0.020528	0.132622	0.006746	0.00622
2.4595	0.060034	0.047497	0.006589	0.001104	0.038569	0.105963	0.003	0.027429	0.011089	0.017825	0.068551	0.005929	0.02073	0.131556	0.006914	0.006312
2.46	0.059938	0.047806	0.006543	0.000981	0.038797	0.107784	0.00303	0.027569	0.011237	0.017697	0.068244	0.005881	0.020937	0.1305	0.007086	0.006405
2.4605	0.05985	0.048116	0.006498	0.000858	0.039021	0.109629	0.003064	0.027713	0.011387	0.017576	0.067935	0.005831	0.021149	0.129452	0.007261	0.006499
2.461	0.059772	0.048429	0.006452	0.000733	0.039241	0.111498	0.003101	0.027861	0.011538	0.017463	0.067622	0.00578	0.021366	0.128413	0.007439	0.006594
2.4615	0.059702	0.048744	0.006405	0.000606	0.039457	0.113393	0.003141	0.028013	0.011691	0.017356	0.067307	0.005728	0.021587	0.127383	0.007621	0.006691
2.462	0.05964	0.049061	0.006359	0.000478	0.039669	0.115312	0.003185	0.028169	0.011844	0.017256	0.066988	0.005675	0.021813	0.126361	0.007806	0.006788
2.4625	0.059585	0.04938	0.006312	0.000349	0.039877	0.117255	0.003231	0.02833	0.011999	0.017163	0.066667	0.00562	0.022044	0.125349	0.007994	0.006886
2.463	0.059537	0.049702	0.006266	0.000218	0.040081	0.119224	0.00328	0.028496	0.012154	0.017076	0.066343	0.005565	0.022279	0.124344	0.008186	0.006986
2.4635	0.059496	0.050025	0.006218	8.6e-05	0.040281	0.121217	0.003333	0.028666	0.012311	0.016995	0.066017	0.005507	0.022519	0.123349	0.008381	0.007087
2.464	0.059461	0.050351	0.006171	0	0.040476	0.123235	0.003388	0.02884	0.012468	0.01692	0.065688	0.005449	0.022763	0.122362	0.008579	0.007188
2.4645	0.059432	0.050679	0.006123	0	0.040667	0.125277	0.003446	0.029019	0.012627	0.016852	0.065357	0.005389	0.023012	0.121384	0.008781	0.00729
2.465	0.05941	0.051009	0.006075	0	0.040853	0.127344	0.003506	0.029203	0.012786	0.016789	0.065024	0.005328	0.023265	0.120414	0.008986	0.007394
2.4655	0.059393	0.051341	0.006026	0	0.041034	0.129436	0.00357	0.029392	0.012945	0.016733	0.064689	0.005265	0.023521	0.119454	0.009194	0.007498
2.466	0.059382	0.051675	0.005978	0	0.04121	0.131552	0.003635	0.029586	0.013105	0.016682	0.064353	0.005202	0.023782	0.118502	0.009406	0.007603
2.4665	0.059378	0.052012	0.005928	0	0.041381	0.133692	0.003703	0.029785	0.013266	0.016636	0.064017	0.005136	0.024047	0.117559	0.009621	0.007708
2.467	0.059379	0.05235	0.005879	0	0.041546	0.135856	0.003773	0.029988	0.013427	0.016596	0.06368	0.00507	0.024316	0.116624	0.00984	0.007815
2.4675	0.059387	0.052691	0.005829	0	0.041707	0.138044	0.003846	0.030197	0.013588	0.016561	0.063342	0.005002	0.024589	0.115698	0.010061	0.007922
2.468	0.059401	0.053035	0.005779	0	0.041862	0.140255	0.00392	0.030411	0.013749	0.016532	0.063006	0.004933	0.024865	0.114781	0.010287	0.00803
2.4685	0.059422	0.053382	0.005728	0	0.042011	0.142489	0.003997	0.03063	0.01391	0.016507	0.06267	0.004862	0.025144	0.113872	0.010515	0.008138
2.469	0.059449	0.053732	0.005677	0	0.042154	0.144746	0.004075	0.030854	0.01407	0.016487	0.062335	0.00479	0.025427	0.112972	0.010747	0.008247
2.4695	0.059484	0.054085	0.005625	0	0.042292	0.147025	0.004156	0.031084	0.014231	0.016472	0.062003	0.004716	0.025713	0.112081	0.010982	0.008356
2.47	0.059526	0.054441	0.005573	0	0.042423	0.149326	0.004238	0.031319	0.014391	0.016461	0.061673	0.004642	0.026002	0.111199	0.01122	0.008466
2.4705	0.059577	0.054802	0.00552	0	0.042548	0.151648	0.004322	0.031559	0.014551	0.016455	0.061346	0.004566	0.026294	0.110326	0.011462	0.008576
2.471	0.059636	0.055167	0.005467	0	0.042667	0.153991	0.004408	0.031805	0.01471	0.016453	0.061024	0.004488	0.026588	0.109463	0.011707	0.008686
2.4715	0.059703	0.055537	0.005414	0	0.04278	0.156355	0.004495	0.032057	0.014868	0.016455	0.060706	0.00441	0.026886	0.108609	0.011955	0.008797
2.472	0.05978	0.055912	0.00536	0	0.042887	0.158738	0.004583	0.032314	0.015026	0.016461	0.060394	0.00433	0.027186	0.107765	0.012207	0.008908
2.4725	0.059867	0.056293	0.005306	0	0.042986	0.161141	0.004673	0.032576	0.015182	0.016471	0.060088	0.004248	0.027488	0.106931	0.012461	0.009019
2.473	0.059963	0.05668	0.005251	0	0.04308	0.163562	0.004764	0.032845	0.015338	0.016484	0.059789	0.004166	0.027792	0.106107	0.012719	0.00913
2.4735	0.06007	0.057072	0.005195	0	0.043167	0.166001	0.004857	0.033119	0.015492	0.016501	0.059498	0.004082	0.028098	0.105294	0.01298	0.009241
2.474	0.060188	0.057472	0.005139	0	0.043247	0.168458	0.00495	0.033398	0.015645	0.01652	0.059216	0.003997	0.028406	0.10449	0.013244	0.009352
2.4745	0.060316	0.057878	0.005083	0	0.04332	0.170931	0.005045	0.033684	0.015796	0.016543	0.058942	0.003911	0.028715	0.103697	0.013511	0.009464
2.475	0.060456	0.058292	0.005026	0	0.043386	0.173419	0.005141	0.033975	0.015946	0.016568	0.058679	0.003824	0.029027	0.102914	0.013781	0.009575
2.4755	0.060607	0.058713	0.004969	0	0.043446	0.175923	0.005237	0.034272	0.016094	0.016596	0.058426	0.003735	0.029339	0.102142	0.014054	0.009686
2.476	0.06077	0.059142	0.004911	0	0.043498	0.178441	0.005334	0.034575	0.01624	0.016627	0.058184	0.003645	0.029653	0.10138	0.014329	0.009797
2.4765	0.060946	0.059579	0.004853	0	0.043543	0.180972	0.005432	0.034884	0.016385	0.016659	0.057954	0.003554	0.029968	0.100629	0.014608	0.009907
2.477	0.061133	0.060024	0.004794	0	0.043582	0.183515	0.005531	0.035199	0.016527	0.016694	0.057737	0.003463	0.030283	0.099888	0.01489	0.010017
2.4775	0.061333	0.060479	0.004734	0	0.043613	0.18607	0.00563	0.035519	0.016666	0.016731	0.057534	0.00337	0.030599	0.099159	0.015174	0.010127
2.478	0.061545	0.060942	0.004675	0	0.043638	0.188635	0.00573	0.035846	0.016804	0.016769	0.057345	0.003275	0.030916	0.09844	0.015461	0.010237
2.4785	0.061771	0.061415	0.004614	0	0.043656	0.19121	0.00583	0.036178	0.016938	0.016808	0.05717	0.00318	0.031233	0.097731	0.01575	0.010346
2.479	0.062009	0.061897	0.004553	0	0.043667	0.193793	0.00593	0.036515	0.01707	0.016849	0.057011	0.003084	0.03155	0.097034	0.016042	0.010454
2.4795	0.062261	0.062389	0.004491	0	0.043672	0.196384	0.006031	0.036858	0.0172	0.016891	0.056868	0.002987	0.031867	0.096348	0.016337	0.010562
2.48	0.062526	0.062892	0.004429	0	0.043671	0.19898	0.006131	0.037207	0.017326	0.016933	0.056742	0.002889	0.032184	0.095673	0.016634	0.010669
2.4805	0.062804	0.063405	0.004367	0	0.043664	0.201582	0.006232	0.037562	0.017449	0.016977	0.056633	0.00279	0.032501	0.095008	0.016934	0.010775
2.481	0.063097	0.063928	0.004303	0	0.04365	0.204187	0.006333	0.037922	0.017569	0.01702	0.056543	0.00269	0.032816	0.094355	0.017235	0.010881
2.4815	0.063403	0.064463	0.004239	0	0.043631	0.206795	0.006434	0.038287	0.017686	0.017064	0.056471	0.002589	0.033131	0.093713	0.017539	0.010985
2.482	0.063724	0.065008	0.004175	0	0.043605	0.209405	0.006535	0.038658	0.017799	0.017108	0.056418	0.002487	0.033445	0.093083	0.017846	0.011089
2.4825	0.064058	0.065566	0.00411	0	0.043574	0.212014	0.006636	0.039034	0.017909	0.017152	0.056385	0.002385	0.033757	0.092463	0.018154	0.011191
2.483	0.064407	0.066134	0.004044	0	0.043538	0.214622	0.006737	0.039415	0.018016	0.017195	0.056373	0.002282	0.034067	0.091854	0.018464	0.011293
2.4835	0.064771	0.066715	0.003978	0	0.043496	0.217227	0.006838	0.039801	0.018119	0.017238	0.056382	0.002178	0.034376	0.091257	0.018777	0.011393
2.484	0.065149	0.067307	0.003911	0	0.043449	0.219828	0.006938	0.040192	0.018219	0.01728	0.056412	0.002073	0.034683	0.090671	0.019091	0.011493
2.4845	0.065541	0.067912	0.003843	0	0.043398	0.222423	0.007038	0.040588	0.018316	0.017322	0.056465	0.001968	0.034987	0.090095	0.019407	0.011591
2.485	0.065948	0.068529	0.003775	0	0.043342	0.225011	0.007138	0.04099	0.018408	0.017363	0.056541	0.001862	0.035288	0.089531	0.019725	0.011687
2.4855	0.066371	0.069159	0.003707	0	0.043281	0.227591	0.007237	0.041396	0.018497	0.017403	0.056639	0.001755	0.035586	0.088977	0.020044	0.011783
2.486	0.066808	0.069801	0.003637	0	0.043217	0.230162	0.007336	0.041807	0.018583	0.017441	0.056762	0.001648	0.035881	0.088434	0.020365	0.011877
2.4865	0.06726	0.070456	0.003567	0	0.04315	0.232721	0.007434	0.042223	0.018665	0.017478	0.056909	0.001541	0.036173	0.087901	0.020688	0.011969
2.487	0.067726	0.071125	0.003497	0	0.043079	0.235267	0.007532	0.042643	0.018743	0.017514	0.05708	0.001433	0.03646	0.08738	0.021012	0.012061
2.4875	0.068208	0.071806	0.003426	0	0.043005	0.237799	0.007629	0.043069	0.018817	0.017548	0.057277	0.001324	0.036743	0.086868	0.021337	0.01215
2.488	0.068706	0.0725	0.003354	0	0.042929	0.240315	0.007726	0.043499	0.018888	0.017581	0.0575	0.001215	0.037022	0.086367	0.021664	0.012239
2.4885	0.069218	0.073208	0.003282	0	0.04285	0.242814	0.007822	0.043934	0.018955	0.017612	0.057749	0.001106	0.037295	0.085876	0.021991	0.012325
2.489	0.069745	0.073929	0.003209	0	0.04277	0.245293	0.007917	0.044373	0.019018	0.017641	0.058024	0.000996	0.037564	0.085396	0.02232	0.012411
2.4895	0.070287	0.074663	0.003136	0	0.042688	0.247752	0.008012	0.044818	0.019078	0.017667	0.058326	0.000887	0.037827	0.084925	0.02265	0.012494
2.49	0.070844	0.075411	0.003062	0	0.042604	0.250188	0.008106	0.045266	0.019134	0.017692	0.058656	0.000777	0.038084	0.084464	0.022981	0.012576
2.4905	0.071415	0.076172	0.002987	0	0.04252	0.252599	0.0082	0.04572	0.019187	0.017714	0.059014	0.000666	0.038334	0.084014	0.023312	0.012656
2.491	0.072002	0.076947	0.002912	0	0.042435	0.254985	0.008293	0.046177	0.019236	0.017734	0.059399	0.000556	0.038578	0.083572	0.023644	0.012735
2.4915	0.072603	0.077735	0.002837	0	0.042349	0.257342	0.008385	0.04664	0.019282	0.017752	0.059813	0.000446	0.038815	0.083141	0.023977	0.012812
2.492	0.073218	0.078537	0.002761	0	0.042264	0.259669	0.008476	0.047106	0.019325	0.017767	0.060256	0.000335	0.039045	0.082719	0.02431	0.012887
2.4925	0.073848	0.079352	0.002684	0	0.042178	0.261965	0.008567	0.047577	0.019365	0.01778	0.060728	0.000225	0.039266	0.082306	0.024643	0.01296
2.493	0.074492	0.08018	0.002607	0	0.042093	0.264226	0.008657	0.048052	0.019402	0.01779	0.06123	0.000114	0.03948	0.081902	0.024977	0.013031
2.4935	0.075149	0.081022	0.002529	0	0.042008	0.266451	0.008747	0.048531	0.019436	0.017797	0.061761	4e-06	0.039684	0.081506	0.025311	0.013101
2.494	0.075821	0.081876	0.002451	0	0.041924	0.268639	0.008835	0.049013	0.019468	0.017803	0.062323	0	0.03988	0.08112	0.025645	0.013168
2.4945	0.076506	0.082744	0.002373	0	0.041842	0.270786	0.008923	0.0495	0.019496	0.017805	0.062914	0	0.040066	0.080741	0.025978	0.013234
2.495	0.077204	0.083625	0.002294	0	0.041761	0.272892	0.00901	0.04999	0.019522	0.017805	0.063537	0	0.040242	0.080371	0.026312	0.013298
2.4955	0.077915	0.084518	0.002214	0	0.041681	0.274954	0.009097	0.050483	0.019546	0.017803	0.064189	0	0.040408	0.080009	0.026644	0.01336
2.496	0.078639	0.085425	0.002134	0	0.041604	0.276971	0.009182	0.05098	0.019567	0.017798	0.064873	0	0.040564	0.079654	0.026977	0.013421
2.4965	0.079375	0.086343	0.002053	0	0.041529	0.278941	0.009267	0.051479	0.019586	0.01779	0.065588	0	0.040708	0.079307	0.027308	0.013479
2.497	0.080124	0.087274	0.001972	0	0.041457	0.280861	0.009351	0.051982	0.019603	0.01778	0.066334	0	0.040841	0.078967	0.027639	0.013536
2.4975	0.080884	0.088217	0.001891	0	0.041387	0.28273	0.009435	0.052487	0.019618	0.017768	0.067111	0	0.040963	0.078634	0.027969	0.013591
2.498	0.081655	0.089172	0.001809	0	0.041321	0.284546	0.009517	0.052994	0.019631	0.017752	0.06792	0	0.041072	0.078307	0.028297	0.013644
2.4985	0.082438	0.090138	0.001726	0	0.041257	0.286307	0.009598	0.053504	0.019642	0.017735	0.06876	0	0.041169	0.077986	0.028624	0.013695
2.499	0.083231	0.091115	0.001644	0	0.041198	0.28801	0.009679	0.054016	0.019651	0.017715	0.069632	0	0.041253	0.077671	0.02895	0.013744
2.4995	0.084035	0.092103	0.00156	0	0.041142	0.289654	0.009759	0.05453	0.019658	0.017692	0.070536	0	0.041324	0.077362	0.029273	0.013792
2.5	0.084848	0.093102	0.001477	0	0.041091	0.291237	0.009838	0.055045	0.019664	0.017667	0.071471	0	0.041382	0.077058	0.029595	0.013838
2.5005	0.085671	0.09411	0.001393	0	0.041044	0.292757	0.009916	0.055562	0.019668	0.01764	0.072439	0	0.041426	0.076759	0.029915	0.013882
2.501	0.086502	0.095129	0.001308	0	0.041002	0.294212	0.009993	0.05608	0.01967	0.01761	0.073438	0	0.041456	0.076465	0.030232	0.013924
2.5015	0.087342	0.096157	0.001224	0	0.040965	0.295602	0.010069	0.056599	0.019671	0.017578	0.074469	0	0.041473	0.076175	0.030548	0.013964
2.502	0.08819	0.097194	0.001139	0	0.040933	0.296925	0.010144	0.05712	0.01967	0.017544	0.075532	0	0.041475	0.075889	0.03086	0.014002
2.5025	0.089046	0.09824	0.001053	0	0.040907	0.298178	0.010219	0.057641	0.019668	0.017507	0.076627	0	0.041462	0.075607	0.03117	0.014039
2.503	0.089909	0.099295	0.000967	0	0.040887	0.299363	0.010293	0.058162	0.019665	0.017469	0.077754	0	0.041435	0.075329	0.031477	0.014073
2.5035	0.090778	0.100357	0.000881	0	0.040873	0.300477	0.010366	0.058684	0.01966	0.017428	0.078913	0	0.041393	0.075054	0.03178	0.014106
2.504	0.091654	0.101427	0.000795	0	0.040866	0.30152	0.010438	0.059207	0.019654	0.017385	0.080103	0	0.041336	0.074781	0.03208	0.014137
2.5045	0.092536	0.102505	0.000709	0	0.040865	0.30249	0.01051	0.05973	0.019647	0.017341	0.081326	0	0.041264	0.074511	0.032377	0.014166
2.505	0.093424	0.103589	0.000622	0	0.040871	0.303389	0.010581	0.060253	0.019639	0.017295	0.08258	0	0.041177	0.074244	0.03267	0.014193
2.5055	0.094316	0.10468	0.000535	0	0.040884	0.304213	0.010652	0.060776	0.019629	0.017247	0.083865	0	0.041075	0.073979	0.032959	0.014219
2.506	0.095213	0.105777	0.000447	0	0.040904	0.304964	0.010722	0.0613	0.019619	0.017197	0.085182	0	0.040958	0.073715	0.033243	0.014243
2.5065	0.096115	0.106879	0.00036	0	0.040932	0.305641	0.010792	0.061823	0.019607	0.017146	0.086531	0	0.040826	0.073453	0.033524	0.014265
2.507	0.09702	0.107986	0.000272	0	0.040968	0.306244	0.010861	0.062347	0.019594	0.017093	0.08791	0	0.04068	0.073193	0.033799	0.014285
2.5075	0.097929	0.109098	0.000184	0	0.041012	0.306773	0.01093	0.06287	0.01958	0.017039	0.089321	0	0.040519	0.072934	0.03407	0.014303
2.508	0.09884	0.110214	9.6e-05	0	0.041064	0.307228	0.010999	0.063394	0.019565	0.016984	0.090763	0	0.040345	0.072676	0.034336	0.01432
2.5085	0.099754	0.111334	8e-06	0	0.041124	0.307611	0.011068	0.063918	0.019549	0.016927	0.092235	0	0.040158	0.07242	0.034597	0.014335
2.509	0.10067	0.112457	0	0	0.041193	0.307922	0.011137	0.064441	0.019532	0.016869	0.093737	0	0.039957	0.072165	0.034852	0.014348
2.5095	0.101588	0.113582	0	0	0.04127	0.30816	0.011206	0.064965	0.019514	0.01681	0.095271	0	0.039744	0.071912	0.035102	0.014359
2.51	0.102507	0.114709	0	0	0.041357	0.308328	0.011275	0.065488	0.019495	0.01675	0.096834	0	0.039519	0.07166	0.035346	0.014369
2.5105	0.103427	0.115838	0	0	0.041452	0.308425	0.011344	0.066012	0.019475	0.016688	0.098427	0	0.039281	0.07141	0.035584	0.014377
2.511	0.104348	0.116968	0	0	0.041557	0.308451	0.011415	0.066535	0.019454	0.016626	0.100051	0	0.039032	0.071162	0.035816	0.014383
2.5115	0.105269	0.118097	0	0	0.041671	0.308408	0.011485	0.067059	0.019432	0.016563	0.101704	0	0.038772	0.070916	0.036041	0.014387
2.512	0.106191	0.119227	0	0	0.041794	0.308295	0.011557	0.067583	0.019409	0.016499	0.103386	0	0.038502	0.070672	0.03626	0.01439
2.5125	0.107112	0.120355	0	0	0.041927	0.308113	0.01163	0.068107	0.019386	0.016435	0.105098	0	0.03822	0.07043	0.036472	0.014391
2.513	0.108034	0.121482	0	0	0.04207	0.307863	0.011703	0.06863	0.019361	0.016369	0.106839	0	0.037929	0.070191	0.036677	0.01439
2.5135	0.108956	0.122607	0	0	0.042222	0.307544	0.011779	0.069154	0.019336	0.016303	0.108608	0	0.037628	0.069956	0.036875	0.014388
2.514	0.109877	0.12373	0	0	0.042384	0.307156	0.011855	0.069678	0.019309	0.016236	0.110407	0	0.037318	0.069724	0.037065	0.014384
2.5145	0.110798	0.124849	0	0	0.042557	0.3067	0.011934	0.070202	0.019282	0.016169	0.112234	0	0.036999	0.069497	0.037247	0.014378
2.515	0.111717	0.125964	0	0	0.042739	0.306176	0.012014	0.070726	0.019254	0.0161	0.11409	0	0.036672	0.069275	0.037422	0.01437
2.5155	0.112636	0.127075	0	0	0.042931	0.305584	0.012096	0.071251	0.019224	0.016032	0.115974	0	0.036336	0.069058	0.037588	0.014361
2.516	0.113552	0.12818	0	0	0.043134	0.304923	0.01218	0.071776	0.019194	0.015962	0.117886	0	0.035992	0.068847	0.037745	0.01435
2.5165	0.114468	0.129281	0	0	0.043347	0.304193	0.012266	0.072301	0.019163	0.015892	0.119826	0	0.035641	0.068642	0.037894	0.014337
2.517	0.115381	0.130375	0	0	0.04357	0.303395	0.012355	0.072827	0.019131	0.015822	0.121793	0	0.035283	0.068445	0.038034	0.014322
2.5175	0.116292	0.131462	0	0	0.043804	0.302528	0.012447	0.073353	0.019098	0.015751	0.123788	0	0.034919	0.068255	0.038164	0.014306
2.518	0.1172	0.132541	0	0	0.044049	0.301593	0.012541	0.07388	0.019064	0.01568	0.125809	0	0.034547	0.068073	0.038285	0.014288
2.5185	0.118105	0.133613	0	0	0.044304	0.300589	0.012638	0.074407	0.019029	0.015608	0.127858	0	0.03417	0.0679	0.038397	0.014268
2.519	0.119007	0.134676	0	0	0.044571	0.299517	0.012738	0.074935	0.018993	0.015536	0.129933	0	0.033787	0.067736	0.038498	0.014246
2.5195	0.119905	0.13573	0	0	0.044848	0.298377	0.012841	0.075463	0.018956	0.015464	0.132035	0	0.033399	0.067581	0.03859	0.014223
2.52	0.120799	0.136775	0	0	0.045136	0.297169	0.012948	0.075992	0.018918	0.015391	0.134162	0	0.033005	0.067436	0.038672	0.014198
2.5205	0.121688	0.137811	0	0	0.045435	0.295893	0.013058	0.076521	0.018879	0.015318	0.136316	0	0.032607	0.067301	0.038744	0.014171
2.521	0.122572	0.138836	0	0.000549	0.045745	0.294551	0.013172	0.077051	0.018838	0.015245	0.138495	0	0.032204	0.067177	0.038806	0.014142
2.5215	0.123451	0.139852	0	0.001154	0.046067	0.293143	0.01329	0.077581	0.018797	0.015172	0.1407	0	0.031797	0.067064	0.038858	0.014111
2.522	0.124323	0.140858	0	0.001782	0.046399	0.291669	0.013411	0.078111	0.018755	0.015098	0.14293	0	0.031386	0.066963	0.038901	0.014079
2.5225	0.125188	0.141854	0	0.002434	0.046743	0.290131	0.013537	0.078641	0.018712	0.015024	0.145185	0	0.030971	0.066874	0.038933	0.014045
2.523	0.126047	0.142841	0	0.003111	0.047098	0.28853	0.013667	0.079172	0.018667	0.01495	0.147464	0	0.030553	0.066797	0.038956	0.014009
2.5235	0.126898	0.143819	0	0.003812	0.047464	0.286866	0.013802	0.079702	0.018622	0.014876	0.149768	0	0.030132	0.066733	0.038968	0.013972
2.524	0.127741	0.144788	0	0.004539	0.047842	0.285141	0.013941	0.080232	0.018575	0.014802	0.152095	0	0.029709	0.066681	0.038971	0.013932
2.5245	0.128576	0.14575	0	0.005291	0.048231	0.283356	0.014086	0.080762	0.018527	0.014727	0.154445	0	0.029282	0.066644	0.038964	0.013891
2.525	0.129403	0.146705	0	0.006069	0.048631	0.281512	0.014235	0.081291	0.018478	0.014653	0.156818	0	0.028853	0.066619	0.038948	0.013848
2.5255	0.130221	0.147654	0	0.006874	0.049043	0.27961	0.01439	0.08182	0.018427	0.014579	0.159214	0	0.028423	0.066609	0.038922	0.013804
2.526	0.13103	0.148596	0	0.007706	0.049466	0.277653	0.01455	0.082348	0.018376	0.014504	0.161632	0	0.02799	0.066613	0.038886	0.013757
2.5265	0.13183	0.149533	0	0.008565	0.0499	0.275642	0.014716	0.082874	0.018323	0.01443	0.164071	0	0.027556	0.066632	0.038841	0.01371
2.527	0.132621	0.150466	0	0.009452	0.050346	0.27358	0.014887	0.0834	0.018269	0.014355	0.166532	0	0.027121	0.066665	0.038787	0.01366
2.5275	0.133403	0.151394	0	0.010368	0.050803	0.271468	0.015065	0.083924	0.018214	0.014281	0.169014	0	0.026684	0.066714	0.038723	0.013609
2.528	0.134174	0.152318	0	0.011312	0.051272	0.269309	0.015249	0.084446	0.018158	0.014206	0.171516	0	0.026247	0.066777	0.038651	0.013556
2.5285	0.134936	0.153239	0	0.012286	0.051753	0.267105	0.01544	0.084966	0.0181	0.014132	0.17404	0	0.025808	0.066856	0.03857	0.013502
2.529	0.135688	0.154157	0	0.013289	0.052245	0.264857	0.015637	0.085485	0.018042	0.014058	0.176583	0	0.02537	0.066951	0.038481	0.013447
2.5295	0.136431	0.155073	0	0.014322	0.052749	0.26257	0.015841	0.086001	0.017982	0.013984	0.179146	0	0.024931	0.067062	0.038383	0.01339
2.53	0.137164	0.155988	0	0.015386	0.053265	0.260243	0.016053	0.086515	0.017921	0.013911	0.181729	0	0.024492	0.06719	0.038278	0.013331
2.5305	0.137887	0.156901	0	0.016481	0.053793	0.25788	0.016271	0.087026	0.017859	0.013837	0.184332	0	0.024052	0.067333	0.038164	0.013272
2.531	0.138602	0.157813	0	0.017607	0.054334	0.255483	0.016498	0.087534	0.017796	0.013764	0.186953	0	0.023614	0.067494	0.038043	0.013211
2.5315	0.139308	0.158725	0	0.018764	0.054886	0.253054	0.016732	0.088039	0.017731	0.013692	0.189595	0.00026	0.023175	0.067671	0.037915	0.013149
2.532	0.140006	0.159637	0	0.019954	0.055452	0.250595	0.016975	0.088541	0.017666	0.013619	0.192255	0.00054	0.022737	0.067865	0.037779	0.013086
2.5325	0.140696	0.160549	0	0.021177	0.05603	0.248107	0.017226	0.08904	0.0176	0.013547	0.194936	0.000832	0.0223	0.068076	0.037637	0.013022
2.533	0.141379	0.161462	0	0.022432	0.05662	0.245593	0.017486	0.089535	0.017532	0.013475	0.197636	0.001138	0.021864	0.068304	0.037488	0.012957
2.5335	0.142055	0.162376	0	0.023721	0.057223	0.243055	0.017755	0.090026	0.017464	0.013404	0.200357	0.001456	0.021429	0.06855	0.037332	0.012891
2.534	0.142724	0.163292	0	0.025044	0.057839	0.240494	0.018033	0.090514	0.017395	0.013333	0.203098	0.001788	0.020995	0.068814	0.037171	0.012825
2.5345	0.143388	0.164209	0	0.026401	0.058468	0.237913	0.018321	0.090998	0.017324	0.013262	0.205859	0.002134	0.020562	0.069095	0.037004	0.012757
2.535	0.144047	0.165129	0	0.027793	0.05911	0.235313	0.018618	0.091479	0.017253	0.013192	0.208641	0.002493	0.020131	0.069394	0.036831	0.012689
2.5355	0.144701	0.16605	0	0.029219	0.059764	0.232697	0.018926	0.091956	0.017182	0.013122	0.211443	0.002867	0.019701	0.069712	0.036652	0.012621
2.536	0.145352	0.166975	0	0.030681	0.060432	0.230065	0.019244	0.092428	0.017109	0.013053	0.214265	0.003255	0.019273	0.070047	0.036469	0.012553
2.5365	0.145999	0.167902	0	0.032179	0.061114	0.227421	0.019572	0.092897	0.017036	0.012985	0.217108	0.003658	0.018846	0.070401	0.036281	0.012484
2.537	0.146643	0.168832	0	0.033712	0.061808	0.224765	0.019912	0.093362	0.016962	0.012917	0.219972	0.004075	0.018422	0.070773	0.036088	0.012415
2.5375	0.147285	0.169765	0	0.035283	0.062517	0.222099	0.020264	0.093823	0.016888	0.01285	0.222856	0.004508	0.018	0.071163	0.035892	0.012347
2.538	0.147926	0.170702	0	0.03689	0.063239	0.219426	0.020627	0.09428	0.016813	0.012783	0.225761	0.004956	0.017579	0.071573	0.035692	0.012279
2.5385	0.148565	0.171643	0	0.038534	0.063975	0.216746	0.021002	0.094732	0.016737	0.012717	0.228688	0.00542	0.017161	0.072001	0.035488	0.012211
2.539	0.149203	0.172587	0	0.040215	0.064726	0.214061	0.02139	0.09518	0.016661	0.012652	0.231635	0.0059	0.016745	0.072448	0.035281	0.012145
2.5395	0.149841	0.173535	0	0.041935	0.06549	0.211374	0.02179	0.095623	0.016585	0.012588	0.234605	0.006396	0.016331	0.072914	0.035072	0.012079
2.54	0.150479	0.174488	0	0.043692	0.066269	0.208685	0.022203	0.096062	0.016508	0.012524	0.237597	0.006908	0.01592	0.073399	0.03486	0.012015
2.5405	0.151118	0.175444	0	0.045488	0.067062	0.205996	0.02263	0.096496	0.016431	0.012461	0.240611	0.007437	0.015512	0.073903	0.034646	0.011953
2.541	0.151757	0.176405	0	0.047323	0.06787	0.203308	0.023071	0.096925	0.016353	0.012399	0.243648	0.007983	0.015106	0.074427	0.034431	0.011891
2.5415	0.152396	0.177371	0	0.049196	0.068693	0.200623	0.023526	0.097349	0.016275	0.012338	0.246708	0.008546	0.014702	0.074971	0.034214	0.011832
2.542	0.153038	0.178341	0	0.051109	0.069531	0.197942	0.023995	0.097768	0.016197	0.012277	0.249791	0.009127	0.014301	0.075535	0.033997	0.011775
2.5425	0.15368	0.179316	0	0.053062	0.070383	0.195267	0.024479	0.098182	0.016118	0.012218	0.252897	0.009725	0.013903	0.076118	0.03378	0.01172
2.543	0.154324	0.180296	0	0.055054	0.071251	0.192598	0.024978	0.098592	0.016038	0.012159	0.256026	0.010341	0.013508	0.076722	0.033562	0.011668
2.5435	0.154971	0.18128	0	0.057086	0.072133	0.189937	0.025492	0.098996	0.015959	0.012101	0.259179	0.010975	0.013116	0.077347	0.033345	0.011619
2.544	0.155619	0.18227	0	0.059158	0.073031	0.187284	0.026022	0.099395	0.015879	0.012044	0.262354	0.011628	0.012727	0.077992	0.033129	0.011572
2.5445	0.15627	0.183265	6.5e-05	0.061271	0.073944	0.184642	0.026568	0.099789	0.015798	0.011988	0.265552	0.012299	0.01234	0.078657	0.032915	0.011528
2.545	0.156922	0.184266	0.000288	0.063424	0.074872	0.18201	0.02713	0.100178	0.015718	0.011933	0.268772	0.01299	0.011957	0.079344	0.032701	0.011488
2.5455	0.157578	0.185272	0.000523	0.065618	0.075816	0.179391	0.027708	0.100562	0.015637	0.011879	0.272015	0.013699	0.011577	0.080052	0.03249	0.011452
2.546	0.158235	0.186284	0.000768	0.067852	0.076775	0.176784	0.028304	0.10094	0.015556	0.011827	0.27528	0.014427	0.0112	0.08078	0.032281	0.011419
2.5465	0.158895	0.187303	0.001025	0.070128	0.077749	0.174191	0.028916	0.101313	0.015475	0.011775	0.278566	0.015176	0.010826	0.081529	0.032075	0.01139
2.547	0.159558	0.188328	0.001294	0.072444	0.078738	0.171612	0.029545	0.101681	0.015393	0.011725	0.281874	0.015943	0.010456	0.0823	0.031872	0.011365
2.5475	0.160223	0.189359	0.001575	0.074802	0.079742	0.169048	0.030193	0.102043	0.015312	0.011675	0.285203	0.016731	0.010088	0.083092	0.031673	0.011345
2.548	0.160891	0.190398	0.001868	0.077201	0.080761	0.166501	0.030858	0.102399	0.015231	0.011628	0.288553	0.017539	0.009725	0.083904	0.031477	0.01133
2.5485	0.161561	0.191445	0.002173	0.079641	0.081796	0.163969	0.031541	0.102749	0.01515	0.011581	0.291922	0.018368	0.009364	0.084738	0.031286	0.011319
2.549	0.162233	0.192501	0.002492	0.082122	0.082845	0.161455	0.032242	0.103093	0.01507	0.011536	0.295311	0.019217	0.009008	0.085593	0.031099	0.011314
2.5495	0.162908	0.193565	0.002823	0.084645	0.083909	0.158959	0.032962	0.103431	0.01499	0.011493	0.298719	0.020087	0.008654	0.086468	0.030918	0.011314
2.55	0.163584	0.19464	0.003168	0.087208	0.084988	0.156481	0.033701	0.103762	0.01491	0.011451	0.302145	0.020978	0.008305	0.087365	0.030742	0.01132
2.5505	0.164263	0.195724	0.003526	0.089813	0.086082	0.154022	0.034459	0.104086	0.014831	0.011411	0.305589	0.02189	0.007958	0.088282	0.030571	0.011331
2.551	0.164943	0.19682	0.003898	0.09246	0.087191	0.151583	0.035236	0.104403	0.014752	0.011372	0.30905	0.022824	0.007616	0.089219	0.030408	0.011349
2.5515	0.165625	0.197926	0.004284	0.095147	0.088315	0.149163	0.036032	0.104713	0.014674	0.011335	0.312527	0.02378	0.007278	0.090178	0.030251	0.011373
2.552	0.166309	0.199044	0.004685	0.097875	0.089452	0.146763	0.036848	0.105016	0.014597	0.0113	0.316021	0.024757	0.006943	0.091156	0.030102	0.011404
2.5525	0.166995	0.200174	0.0051	0.100645	0.090605	0.144384	0.037684	0.10531	0.014521	0.011267	0.319529	0.025756	0.006612	0.092155	0.02996	0.011442
2.553	0.167681	0.201316	0.005531	0.103454	0.091771	0.142026	0.038539	0.105598	0.014445	0.011235	0.323052	0.026778	0.006285	0.093173	0.029827	0.011487
2.5535	0.16837	0.20247	0.005976	0.106305	0.092952	0.139689	0.039415	0.105877	0.014371	0.011206	0.326588	0.027821	0.005963	0.094212	0.029702	0.011539
2.554	0.169059	0.203637	0.006438	0.109195	0.094146	0.137374	0.040311	0.106148	0.014298	0.011178	0.330136	0.028888	0.005644	0.095271	0.029587	0.0116
2.5545	0.169748	0.204817	0.006915	0.112126	0.095355	0.135081	0.041227	0.106412	0.014227	0.011153	0.333696	0.029977	0.005329	0.096349	0.029481	0.011668
2.555	0.170439	0.20601	0.007408	0.115097	0.096576	0.13281	0.042164	0.106668	0.014156	0.01113	0.337267	0.031089	0.005019	0.097447	0.029385	0.011744
2.5555	0.171129	0.207216	0.007918	0.118106	0.097811	0.130561	0.043121	0.106915	0.014088	0.011108	0.340848	0.032224	0.004712	0.098565	0.029299	0.01183
2.556	0.17182	0.208435	0.008444	0.121155	0.099059	0.128336	0.044099	0.107155	0.01402	0.011089	0.344438	0.033382	0.00441	0.099703	0.029224	0.011924
2.5565	0.172511	0.209667	0.008988	0.124243	0.10032	0.126133	0.045099	0.107387	0.013955	0.011073	0.348036	0.034563	0.004113	0.10086	0.029161	0.012027
2.557	0.173201	0.210912	0.009549	0.127369	0.101593	0.123955	0.046119	0.107611	0.013891	0.011058	0.351642	0.035768	0.00382	0.102036	0.029109	0.01214
2.5575	0.173892	0.21217	0.010127	0.130533	0.102878	0.121801	0.047161	0.107827	0.013829	0.011046	0.355254	0.036996	0.003531	0.103232	0.029069	0.012263
2.558	0.174582	0.213441	0.010723	0.133735	0.104176	0.119672	0.048224	0.108037	0.013769	0.011036	0.358873	0.038248	0.003247	0.104447	0.029041	0.012396
2.5585	0.175273	0.214724	0.011338	0.136973	0.105485	0.117568	0.049308	0.108238	0.01371	0.011029	0.362498	0.039524	0.002967	0.105681	0.029027	0.012539
2.559	0.175965	0.216021	0.011971	0.140248	0.106806	0.11549	0.050414	0.108433	0.013654	0.011024	0.366128	0.040823	0.002693	0.106934	0.029026	0.012693
2.5595	0.176658	0.21733	0.012623	0.143558	0.108139	0.113439	0.051542	0.108621	0.0136	0.011021	0.369764	0.042147	0.002423	0.108205	0.029038	0.012858
2.56	0.177352	0.218652	0.013295	0.146904	0.109484	0.111414	0.052691	0.108803	0.013548	0.011021	0.373405	0.043494	0.002158	0.109495	0.029065	0.013035
2.5605	0.178048	0.219987	0.013985	0.150284	0.110839	0.109417	0.053863	0.108979	0.013499	0.011023	0.377052	0.044866	0.001898	0.110804	0.029106	0.013223
2.561	0.178747	0.221335	0.014696	0.153698	0.112206	0.107448	0.055056	0.109148	0.013452	0.011028	0.380702	0.046262	0.001643	0.11213	0.029162	0.013424
2.5615	0.179448	0.222696	0.015426	0.157146	0.113585	0.105508	0.056272	0.109313	0.013407	0.011036	0.384358	0.047682	0.001393	0.113475	0.029233	0.013638
2.562	0.180152	0.224069	0.016177	0.160626	0.114974	0.103598	0.057509	0.109472	0.013365	0.011046	0.388017	0.049126	0.001148	0.114837	0.02932	0.013864
2.5625	0.18086	0.225455	0.016949	0.164139	0.116373	0.101718	0.058769	0.109627	0.013326	0.011059	0.39168	0.050594	0.000909	0.116218	0.029423	0.014104
2.563	0.181573	0.226854	0.017741	0.167682	0.117784	0.09987	0.060051	0.109778	0.01329	0.011074	0.395347	0.052087	0.000675	0.117616	0.029542	0.014358
2.5635	0.182291	0.228266	0.018555	0.171257	0.119204	0.098053	0.061356	0.109926	0.013256	0.011092	0.399017	0.053603	0.000447	0.119031	0.029677	0.014626
2.564	0.183014	0.229689	0.01939	0.174861	0.120635	0.09627	0.062683	0.11007	0.013225	0.011113	0.40269	0.055144	0.000225	0.120464	0.02983	0.014909
2.5645	0.183744	0.231125	0.020247	0.178495	0.122075	0.09452	0.064032	0.110211	0.013197	0.011137	0.406368	0.056709	8e-06	0.121915	0.03	0.015207
2.565	0.184482	0.232572	0.021126	0.182157	0.123526	0.092805	0.065404	0.11035	0.013172	0.011164	0.410048	0.058298	0	0.123383	0.030188	0.01552
2.5655	0.185228	0.23403	0.022028	0.185848	0.124986	0.091125	0.066799	0.110487	0.013151	0.011193	0.413733	0.05991	0	0.124868	0.030394	0.015849
2.566	0.185984	0.2355	0.022953	0.189566	0.126456	0.089481	0.068216	0.110622	0.013132	0.011225	0.417421	0.061547	0	0.126371	0.030618	0.016195
2.5665	0.186749	0.236979	0.023901	0.193311	0.127935	0.087873	0.069656	0.110756	0.013117	0.011261	0.421113	0.063207	0	0.127891	0.030861	0.016557
2.567	0.187526	0.238469	0.024872	0.197083	0.129424	0.086304	0.071119	0.110889	0.013105	0.011299	0.424809	0.064891	0	0.129427	0.031123	0.016937
2.5675	0.188314	0.239968	0.025867	0.20088	0.130921	0.084772	0.072605	0.111021	0.013096	0.011339	0.428508	0.066598	0	0.13098	0.031405	0.017334
2.568	0.189115	0.241477	0.026886	0.204702	0.132428	0.08328	0.074113	0.111153	0.013091	0.011383	0.43221	0.068328	0	0.13255	0.031707	0.017749
2.5685	0.189929	0.242994	0.027929	0.208549	0.133943	0.081827	0.075645	0.111285	0.013089	0.01143	0.435915	0.070082	0	0.134137	0.032029	0.018182
2.569	0.190757	0.244519	0.028998	0.212419	0.135467	0.080414	0.077199	0.111418	0.01309	0.01148	0.439622	0.071858	0	0.13574	0.032372	0.018635
2.5695	0.1916	0.246052	0.030091	0.216313	0.137	0.079042	0.078776	0.111551	0.013095	0.011532	0.443331	0.073657	0	0.137359	0.032736	0.019107
2.57	0.192458	0.247592	0.031209	0.220228	0.13854	0.077711	0.080376	0.111686	0.013104	0.011588	0.447041	0.075479	0	0.138995	0.033122	0.019598
2.5705	0.193332	0.249139	0.032353	0.224165	0.140088	0.076423	0.081998	0.111823	0.013117	0.011646	0.450752	0.077323	0	0.140648	0.03353	0.02011
2.571	0.194223	0.250693	0.033523	0.228122	0.141643	0.075177	0.083643	0.111963	0.013133	0.011708	0.454463	0.079188	0	0.142318	0.033961	0.020643
2.5715	0.195131	0.252252	0.034719	0.232098	0.143206	0.073975	0.08531	0.112105	0.013152	0.011773	0.458173	0.081075	0	0.144005	0.034414	0.021197
2.572	0.196056	0.253817	0.035941	0.236093	0.144775	0.072816	0.087	0.11225	0.013176	0.01184	0.461881	0.082984	0	0.14571	0.034891	0.021773
2.5725	0.197	0.255387	0.03719	0.240105	0.146351	0.071703	0.088713	0.112399	0.013203	0.011911	0.465585	0.084914	0	0.147431	0.035392	0.02237
2.573	0.197962	0.256961	0.038465	0.244133	0.147934	0.070634	0.090447	0.112552	0.013234	0.011985	0.469286	0.086864	0	0.14917	0.035917	0.022991
2.5735	0.198943	0.258539	0.039768	0.248178	0.149522	0.069611	0.092204	0.112711	0.013269	0.012061	0.472981	0.088835	0	0.150926	0.036467	0.023634
2.574	0.199943	0.260119	0.041098	0.252237	0.151116	0.068634	0.093983	0.112874	0.013308	0.012141	0.476669	0.090826	0	0.1527	0.037043	0.0243
2.5745	0.200963	0.261702	0.042456	0.256309	0.152716	0.067703	0.095784	0.113044	0.013351	0.012224	0.48035	0.092836	0	0.154492	0.037644	0.024991
2.575	0.202002	0.263286	0.043841	0.260394	0.15432	0.06682	0.097606	0.113221	0.013398	0.012311	0.484022	0.094866	0	0.156301	0.038272	0.025705
2.5755	0.203062	0.26487	0.045254	0.264491	0.15593	0.065985	0.09945	0.113405	0.013449	0.0124	0.487685	0.096916	0	0.158128	0.038926	0.026444
2.576	0.204142	0.266453	0.046696	0.268598	0.157544	0.065198	0.101315	0.113597	0.013504	0.012492	0.491336	0.098984	0	0.159974	0.039609	0.027209
2.5765	0.205243	0.268035	0.048166	0.272714	0.159163	0.064459	0.103202	0.113798	0.013563	0.012588	0.494974	0.101071	0	0.161838	0.040319	0.027999
2.577	0.206366	0.269614	0.049664	0.276838	0.160785	0.06377	0.105108	0.114007	0.013627	0.012686	0.498598	0.103177	0	0.16372	0.041058	0.028815
2.5775	0.207509	0.27119	0.051192	0.280969	0.162411	0.06313	0.107035	0.114225	0.013694	0.012788	0.502207	0.1053	0	0.165622	0.041827	0.029657
2.578	0.208675	0.272761	0.052749	0.285106	0.16404	0.06254	0.108982	0.114454	0.013766	0.012893	0.505798	0.107441	0	0.167543	0.042625	0.030526
2.5785	0.209862	0.274327	0.054335	0.289246	0.165671	0.062	0.110949	0.114693	0.013843	0.013001	0.509371	0.109598	0	0.169483	0.043454	0.031422
2.579	0.211072	0.275887	0.055951	0.293391	0.167305	0.061511	0.112935	0.114942	0.013923	0.013112	0.512925	0.111773	0	0.171444	0.044314	0.032346
2.5795	0.212305	0.277441	0.057597	0.297538	0.168942	0.061073	0.11494	0.115202	0.014008	0.013227	0.516457	0.113965	0	0.173425	0.045206	0.033299
2.58	0.213561	0.278987	0.059272	0.301686	0.17058	0.060687	0.116963	0.115474	0.014097	0.013344	0.519966	0.116172	0	0.175426	0.04613	0.034279
2.5805	0.21484	0.280525	0.060979	0.305834	0.17222	0.060353	0.119003	0.115757	0.014191	0.013465	0.523452	0.118396	0	0.177449	0.047087	0.035289
2.581	0.216143	0.282055	0.062716	0.309982	0.173863	0.06007	0.121061	0.116052	0.014289	0.013589	0.526913	0.120635	0	0.179494	0.048077	0.036329
2.5815	0.217469	0.283575	0.064484	0.314129	0.175507	0.059841	0.123136	0.116359	0.014392	0.013715	0.530349	0.12289	0	0.18156	0.049102	0.037399
2.582	0.21882	0.285085	0.066284	0.318272	0.177154	0.059665	0.125227	0.116679	0.014499	0.013845	0.533758	0.12516	0	0.183648	0.050161	0.038498
2.5825	0.220195	0.286584	0.068114	0.32241	0.178802	0.059543	0.127334	0.117012	0.014611	0.013978	0.53714	0.127444	0	0.185759	0.051257	0.039629
2.583	0.221595	0.288071	0.069977	0.326543	0.180453	0.059474	0.129455	0.117357	0.014728	0.014115	0.540493	0.129743	0	0.187891	0.052388	0.040791
2.5835	0.22302	0.289546	0.071871	0.330669	0.182107	0.05946	0.131591	0.117716	0.014849	0.014254	0.543817	0.132057	0	0.190047	0.053557	0.041985
2.584	0.224469	0.291008	0.073797	0.334787	0.183762	0.059501	0.133741	0.118088	0.014975	0.014396	0.547111	0.134384	0	0.192225	0.054763	0.043211
2.5845	0.225944	0.292455	0.075755	0.338894	0.18542	0.059597	0.135903	0.118474	0.015106	0.014541	0.550373	0.136725	0	0.194426	0.056008	0.044469
2.585	0.227443	0.293887	0.077746	0.342989	0.18708	0.059749	0.138077	0.118873	0.015241	0.01469	0.553603	0.13908	0	0.196649	0.057292	0.04576
2.5855	0.228968	0.295303	0.079769	0.347072	0.188743	0.059957	0.140263	0.119285	0.015381	0.014841	0.5568	0.141448	0	0.198896	0.058617	0.047085
2.586	0.230518	0.296702	0.081825	0.35114	0.190408	0.060222	0.142459	0.119711	0.015526	0.014996	0.559963	0.143829	0	0.201166	0.059982	0.048443
2.5865	0.232093	0.298082	0.083913	0.355191	0.192075	0.060544	0.144665	0.120151	0.015676	0.015153	0.563091	0.146223	0	0.203459	0.061389	0.049835
2.587	0.233693	0.299443	0.086034	0.359224	0.193745	0.060924	0.146879	0.120605	0.015831	0.015313	0.566182	0.14863	0	0.205775	0.062839	0.051262
2.5875	0.235318	0.300784	0.088188	0.363238	0.195418	0.061361	0.149102	0.121072	0.015991	0.015476	0.569236	0.151048	0	0.208115	0.064332	0.052723
2.588	0.236968	0.302104	0.090374	0.367229	0.197093	0.061858	0.151332	0.121552	0.016157	0.015643	0.572252	0.153479	0	0.210478	0.065868	0.054219
2.5885	0.238644	0.303402	0.092594	0.371198	0.198771	0.062413	0.153569	0.122046	0.016327	0.015812	0.575227	0.155922	0	0.212864	0.06745	0.05575
2.589	0.240345	0.304677	0.094846	0.375141	0.200452	0.063028	0.155811	0.122553	0.016502	0.015983	0.578161	0.158377	0	0.215273	0.069078	0.057318
2.5895	0.242071	0.305928	0.097132	0.379057	0.202135	0.063703	0.158057	0.123074	0.016682	0.016158	0.581053	0.160844	0	0.217706	0.070752	0.058921
2.59	0.243823	0.307155	0.09945	0.382944	0.203822	0.064439	0.160307	0.123607	0.016868	0.016335	0.583903	0.163322	0.000277	0.220161	0.072474	0.06056
2.5905	0.2456	0.308357	0.101802	0.386799	0.205511	0.065235	0.162559	0.124154	0.017059	0.016515	0.58671	0.165813	0.00059	0.222639	0.074244	0.062236
2.591	0.247403	0.309534	0.104186	0.390621	0.207204	0.066093	0.164812	0.124713	0.017255	0.016697	0.589474	0.168315	0.000918	0.22514	0.076063	0.063949
2.5915	0.249232	0.310684	0.106604	0.394408	0.208901	0.067013	0.167066	0.125285	0.017456	0.016883	0.592193	0.170829	0.001263	0.227662	0.077933	0.065698
2.592	0.251087	0.311807	0.109055	0.398157	0.210601	0.067995	0.169319	0.125869	0.017663	0.01707	0.594867	0.173355	0.001624	0.230206	0.079853	0.067485
2.5925	0.252968	0.312902	0.111538	0.401868	0.212305	0.069039	0.17157	0.126466	0.017875	0.017261	0.597496	0.175891	0.002001	0.232771	0.081826	0.069309
2.593	0.254876	0.313969	0.114055	0.405538	0.214012	0.070148	0.173818	0.127075	0.018093	0.017454	0.600079	0.178439	0.002395	0.235356	0.083851	0.071171
2.5935	0.256809	0.315007	0.116605	0.409165	0.215724	0.071319	0.176062	0.127697	0.018316	0.017649	0.602615	0.180998	0.002806	0.237962	0.085929	0.073071
2.594	0.258769	0.316015	0.119187	0.412748	0.21744	0.072555	0.178301	0.12833	0.018545	0.017847	0.605104	0.183568	0.003234	0.240587	0.088062	0.075008
2.5945	0.260755	0.316994	0.121802	0.416285	0.21916	0.073856	0.180535	0.128975	0.018779	0.018048	0.607546	0.186148	0.00368	0.24323	0.090249	0.076984
2.595	0.262767	0.317942	0.12445	0.419774	0.220883	0.075222	0.182761	0.129631	0.019018	0.018251	0.609941	0.188738	0.004144	0.245892	0.092493	0.078998
2.5955	0.264806	0.318859	0.12713	0.423213	0.22261	0.076653	0.184979	0.130299	0.019264	0.018456	0.612288	0.191338	0.004625	0.248571	0.094793	0.081051
2.596	0.266871	0.319744	0.129842	0.426602	0.224342	0.07815	0.187189	0.130977	0.019514	0.018663	0.614586	0.193947	0.005125	0.251267	0.09715	0.083142
2.5965	0.268963	0.320597	0.132586	0.429938	0.226076	0.079714	0.189389	0.131667	0.019771	0.018873	0.616836	0.196565	0.005643	0.253978	0.099565	0.085272
2.597	0.271081	0.321416	0.135363	0.43322	0.227815	0.081345	0.191578	0.132367	0.020033	0.019086	0.619037	0.199192	0.00618	0.256704	0.102038	0.08744
2.5975	0.273225	0.322201	0.13817	0.436447	0.229556	0.083044	0.193756	0.133078	0.0203	0.0193	0.621187	0.201826	0.006736	0.259443	0.104571	0.089647
2.598	0.275395	0.322951	0.14101	0.439618	0.231302	0.08481	0.195922	0.133799	0.020574	0.019517	0.623287	0.204469	0.007312	0.262196	0.107163	0.091894
2.5985	0.277592	0.323666	0.14388	0.442732	0.23305	0.086645	0.198075	0.13453	0.020853	0.019736	0.625335	0.207118	0.007907	0.26496	0.109815	0.094179
2.599	0.279814	0.324346	0.14678	0.445786	0.234802	0.08855	0.200214	0.135271	0.021137	0.019957	0.62733	0.209775	0.008521	0.267734	0.112529	0.096503
2.5995	0.282062	0.32499	0.149712	0.44878	0.236558	0.090524	0.202337	0.136021	0.021428	0.02018	0.629271	0.212439	0.009156	0.270518	0.115304	0.098866
2.6	0.284337	0.325598	0.152674	0.451713	0.238317	0.092569	0.204444	0.13678	0.021724	0.020406	0.631158	0.21511	0.009811	0.27331	0.118141	0.101268
2.6005	0.286636	0.326171	0.155666	0.454584	0.24008	0.094684	0.206534	0.137548	0.022026	0.020633	0.632988	0.217787	0.010487	0.276109	0.12104	0.103708
2.601	0.288961	0.326707	0.158687	0.457391	0.241846	0.09687	0.208606	0.138324	0.022333	0.020863	0.634761	0.220471	0.011183	0.278914	0.124003	0.106188
2.6015	0.291311	0.327206	0.161739	0.460135	0.243618	0.099128	0.210658	0.139109	0.022647	0.021095	0.636476	0.223161	0.011901	0.281724	0.127029	0.108706
2.602	0.293685	0.327668	0.164819	0.462814	0.245393	0.101457	0.21269	0.139902	0.022966	0.021329	0.638132	0.225857	0.01264	0.284537	0.13012	0.111262
2.6025	0.296083	0.328093	0.167929	0.465429	0.247173	0.103859	0.214701	0.140703	0.023291	0.021565	0.639729	0.228559	0.0134	0.287352	0.133275	0.113857
2.603	0.298505	0.328481	0.171067	0.467978	0.248958	0.106333	0.21669	0.141511	0.023622	0.021804	0.641266	0.231266	0.014182	0.290167	0.136495	0.11649
2.6035	0.30095	0.32883	0.174233	0.470461	0.250748	0.10888	0.218656	0.142327	0.023958	0.022044	0.642744	0.233979	0.014986	0.292982	0.139781	0.119161
2.604	0.303417	0.32914	0.177427	0.472877	0.252542	0.1115	0.220598	0.143149	0.024301	0.022287	0.644162	0.236697	0.015812	0.295795	0.143132	0.12187
2.6045	0.305906	0.329411	0.180649	0.475227	0.254342	0.114194	0.222515	0.143979	0.024649	0.022533	0.645518	0.23942	0.016661	0.298604	0.14655	0.124617
2.605	0.308417	0.329643	0.183898	0.47751	0.256146	0.116961	0.224407	0.144814	0.025004	0.02278	0.646813	0.242148	0.017532	0.301409	0.150034	0.1274
2.6055	0.310947	0.329836	0.187175	0.479725	0.257956	0.119802	0.226271	0.145656	0.025364	0.02303	0.648044	0.244881	0.018427	0.304209	0.153585	0.130221
2.606	0.313498	0.329988	0.190478	0.481875	0.259772	0.122717	0.228108	0.146504	0.02573	0.023283	0.649213	0.247617	0.019344	0.307001	0.157202	0.133079
2.6065	0.316067	0.3301	0.193809	0.483958	0.261593	0.125706	0.229916	0.147357	0.026103	0.023537	0.650316	0.250357	0.020285	0.309786	0.160887	0.135973
2.607	0.318655	0.330172	0.197166	0.485975	0.26342	0.128769	0.231693	0.148216	0.026481	0.023794	0.651355	0.2531	0.02125	0.312562	0.16464	0.138904
2.6075	0.32126	0.330204	0.200549	0.487926	0.265253	0.131906	0.23344	0.149079	0.026866	0.024054	0.652327	0.255846	0.022238	0.315328	0.16846	0.14187
2.608	0.323883	0.330195	0.203958	0.489811	0.267093	0.135117	0.235155	0.149947	0.027256	0.024316	0.653232	0.258593	0.02325	0.318082	0.172348	0.144872
2.6085	0.326521	0.330144	0.207392	0.49163	0.26894	0.138403	0.236838	0.150818	0.027653	0.02458	0.65407	0.261341	0.024287	0.320824	0.176303	0.147908
2.609	0.329175	0.330052	0.210852	0.493384	0.270794	0.141763	0.238488	0.151694	0.028056	0.024847	0.65484	0.26409	0.025347	0.323553	0.180326	0.15098
2.6095	0.331844	0.329918	0.214335	0.495073	0.272656	0.145198	0.240104	0.152572	0.028466	0.025116	0.655541	0.266839	0.026433	0.326267	0.184417	0.154086
2.61	0.334527	0.329741	0.217843	0.496696	0.274525	0.148706	0.241686	0.153453	0.028881	0.025388	0.656173	0.269587	0.027543	0.328967	0.188576	0.157227
2.6105	0.337223	0.329521	0.221374	0.498255	0.276402	0.15229	0.243234	0.154336	0.029303	0.025662	0.656733	0.272334	0.028678	0.331653	0.192803	0.160402
2.611	0.339931	0.329256	0.224928	0.499748	0.278287	0.155947	0.244747	0.155222	0.029732	0.025938	0.657221	0.275079	0.029838	0.334322	0.197097	0.163611
2.6115	0.342651	0.328946	0.228504	0.501176	0.28018	0.159679	0.246224	0.156108	0.030166	0.026217	0.657636	0.277821	0.031023	0.336976	0.201458	0.166853
2.612	0.345381	0.328591	0.232102	0.502539	0.282082	0.163485	0.247664	0.156996	0.030607	0.026498	0.657978	0.28056	0.032234	0.339612	0.205887	0.170129
2.6125	0.348121	0.328189	0.23572	0.503836	0.283993	0.167365	0.249067	0.157884	0.031055	0.026782	0.658244	0.283294	0.03347	0.342232	0.210383	0.173439
2.613	0.35087	0.327741	0.239359	0.505069	0.285913	0.171319	0.250432	0.158773	0.031508	0.027068	0.658435	0.286023	0.034732	0.344834	0.214945	0.176781
2.6135	0.353627	0.327245	0.243017	0.506236	0.287842	0.175347	0.251759	0.159661	0.031968	0.027356	0.65855	0.288746	0.03602	0.347418	0.219574	0.180156
2.614	0.356389	0.326702	0.246693	0.507338	0.289779	0.179449	0.253046	0.160549	0.032434	0.027646	0.658588	0.291461	0.037333	0.349982	0.224268	0.183562
2.6145	0.359157	0.326112	0.250388	0.508376	0.291726	0.183624	0.254294	0.161435	0.032907	0.027939	0.658548	0.294169	0.038673	0.352526	0.229028	0.187001
2.615	0.361928	0.325475	0.254099	0.509352	0.293683	0.187873	0.255502	0.16232	0.033386	0.028234	0.658431	0.296867	0.040039	0.35505	0.233852	0.190471
2.6155	0.364701	0.324791	0.257826	0.510266	0.295648	0.192195	0.256669	0.163202	0.033871	0.028531	0.658235	0.299555	0.041431	0.357552	0.238741	0.193971
2.616	0.367475	0.324061	0.261568	0.511119	0.297623	0.196589	0.257796	0.164082	0.034363	0.028831	0.65796	0.302232	0.04285	0.360031	0.243693	0.197501
2.6165	0.370248	0.323283	0.265324	0.511912	0.299608	0.201057	0.258882	0.16496	0.03486	0.029132	0.657605	0.304897	0.044295	0.362486	0.248707	0.201061
2.617	0.373018	0.322459	0.269094	0.512647	0.301604	0.205597	0.259928	0.165834	0.035365	0.029436	0.65717	0.307549	0.045767	0.364916	0.253784	0.204649
2.6175	0.375783	0.321589	0.272876	0.513325	0.30361	0.21021	0.260932	0.166706	0.035876	0.029742	0.656653	0.310188	0.047265	0.36732	0.258922	0.208266
2.618	0.378543	0.320673	0.27667	0.513945	0.305627	0.214897	0.261897	0.167574	0.036393	0.03005	0.656055	0.312812	0.04879	0.369696	0.26412	0.21191
2.6185	0.381294	0.31971	0.280474	0.514511	0.307655	0.219656	0.262821	0.168437	0.036917	0.030361	0.655374	0.315421	0.050341	0.372043	0.269378	0.21558
2.619	0.384037	0.318702	0.284289	0.515024	0.309696	0.224488	0.263704	0.169297	0.037447	0.030674	0.654608	0.318013	0.05192	0.37436	0.274694	0.219277
2.6195	0.386768	0.317648	0.288114	0.515484	0.311748	0.229393	0.264548	0.170152	0.037984	0.030989	0.653759	0.320589	0.053525	0.376644	0.280068	0.222999
2.62	0.389487	0.31655	0.291948	0.515895	0.313813	0.234372	0.265352	0.171003	0.038527	0.031307	0.652825	0.323147	0.055157	0.378895	0.285498	0.226746
2.6205	0.392191	0.315409	0.295792	0.516257	0.315891	0.239423	0.266117	0.171848	0.039078	0.031628	0.651806	0.325688	0.056815	0.38111	0.290984	0.230517
2.621	0.394879	0.314224	0.299644	0.516572	0.317981	0.244548	0.266843	0.172687	0.039635	0.031951	0.650703	0.328211	0.058501	0.383289	0.296523	0.234312
2.6215	0.39755	0.312998	0.303506	0.516842	0.320084	0.249746	0.26753	0.173521	0.040198	0.032278	0.649515	0.330716	0.060213	0.38543	0.302116	0.23813
2.622	0.400202	0.31173	0.307376	0.517067	0.322199	0.255017	0.268179	0.174348	0.040769	0.032607	0.648243	0.333203	0.061951	0.387532	0.307761	0.241971
2.6225	0.402833	0.310422	0.311256	0.517248	0.324327	0.260361	0.26879	0.175168	0.041346	0.032939	0.646886	0.335673	0.063717	0.389593	0.313455	0.245834
2.623	0.405443	0.309076	0.315145	0.517388	0.326468	0.265779	0.269363	0.175982	0.04193	0.033274	0.645445	0.338126	0.065508	0.391612	0.319199	0.249719
2.6235	0.408028	0.307691	0.319043	0.517485	0.328621	0.27127	0.269898	0.176788	0.042521	0.033612	0.643919	0.340561	0.067326	0.393587	0.32499	0.253626
2.624	0.410589	0.306268	0.322951	0.517543	0.330786	0.276834	0.270396	0.177586	0.043119	0.033953	0.642308	0.34298	0.06917	0.395519	0.330828	0.257554
2.6245	0.413122	0.30481	0.326868	0.51756	0.332964	0.282472	0.270856	0.178376	0.043724	0.034298	0.640612	0.345382	0.07104	0.397405	0.336711	0.261503
2.625	0.415626	0.303317	0.330794	0.517538	0.335153	0.288184	0.271279	0.179157	0.044335	0.034646	0.63883	0.347768	0.072936	0.399245	0.342637	0.265471
2.6255	0.4181	0.301789	0.334731	0.517477	0.337354	0.293969	0.271664	0.17993	0.044954	0.034998	0.636962	0.350137	0.074858	0.401038	0.348606	0.269459
2.626	0.420541	0.300229	0.338678	0.517378	0.339566	0.299828	0.272013	0.180694	0.045579	0.035353	0.635009	0.352489	0.076805	0.402782	0.354615	0.273467
2.6265	0.422947	0.298637	0.342637	0.517242	0.341789	0.30576	0.272325	0.181449	0.046211	0.035713	0.63297	0.354824	0.078777	0.404477	0.360664	0.277493
2.627	0.425318	0.297014	0.346606	0.517069	0.344022	0.311765	0.272601	0.182195	0.04685	0.036076	0.630847	0.357142	0.080774	0.406122	0.36675	0.281538
2.6275	0.427651	0.295362	0.350588	0.51686	0.346263	0.317842	0.272843	0.18293	0.047496	0.036443	0.62864	0.359442	0.082796	0.407716	0.372873	0.285602
2.628	0.429944	0.293681	0.354581	0.516616	0.348514	0.323992	0.27305	0.183655	0.048148	0.036814	0.626348	0.361723	0.084843	0.409259	0.37903	0.289683
2.6285	0.432196	0.291972	0.358586	0.516337	0.350772	0.330213	0.273224	0.18437	0.048807	0.03719	0.623974	0.363986	0.086913	0.410748	0.38522	0.293783
2.629	0.434405	0.290238	0.362603	0.516024	0.353037	0.336505	0.273366	0.185073	0.049473	0.037571	0.621517	0.366229	0.089008	0.412186	0.39144	0.2979
2.6295	0.436569	0.288477	0.366633	0.515677	0.355308	0.342867	0.273476	0.185765	0.050145	0.037956	0.618978	0.368451	0.091126	0.41357	0.397689	0.302034
2.63	0.438686	0.286693	0.370676	0.515298	0.357585	0.349299	0.273557	0.186445	0.050824	0.038346	0.61636	0.370653	0.093267	0.414902	0.403965	0.306184
2.6305	0.440754	0.284885	0.374731	0.514887	0.359867	0.3558	0.273608	0.187114	0.051509	0.038742	0.613664	0.372833	0.09543	0.416182	0.410266	0.31035
2.631	0.442773	0.283055	0.378798	0.514445	0.362153	0.36237	0.273632	0.18777	0.0522	0.039143	0.610892	0.374991	0.097617	0.417408	0.41659	0.314531
2.6315	0.444742	0.281204	0.382879	0.513974	0.364443	0.369008	0.273628	0.188415	0.052897	0.039549	0.608045	0.377126	0.099825	0.418583	0.422936	0.318727
2.632	0.446659	0.279333	0.386971	0.513472	0.366736	0.375714	0.273599	0.189048	0.053601	0.039961	0.605127	0.379238	0.102055	0.419705	0.429301	0.322937
2.6325	0.448522	0.277444	0.391076	0.512942	0.369032	0.382487	0.273544	0.18967	0.05431	0.040379	0.602139	0.381326	0.104306	0.420775	0.435683	0.327161
2.633	0.450332	0.275538	0.395193	0.512383	0.37133	0.389326	0.273465	0.19028	0.055025	0.040803	0.599083	0.383391	0.106578	0.421793	0.44208	0.331397
2.6335	0.452087	0.273617	0.399322	0.511796	0.373629	0.396232	0.273362	0.19088	0.055746	0.041234	0.595962	0.385432	0.108871	0.422759	0.44849	0.335646
2.634	0.453786	0.271682	0.403462	0.511182	0.37593	0.403204	0.273236	0.191469	0.056473	0.041671	0.592778	0.387449	0.111184	0.423673	0.45491	0.339906
2.6345	0.455428	0.269735	0.407613	0.510543	0.37823	0.410241	0.273088	0.192048	0.057206	0.042115	0.589532	0.389443	0.113516	0.424536	0.461339	0.344177
2.635	0.457012	0.267776	0.411774	0.509879	0.38053	0.417342	0.272919	0.192617	0.057944	0.042565	0.586228	0.391414	0.115868	0.425345	0.467774	0.348459
2.6355	0.458537	0.265807	0.415944	0.509194	0.382829	0.424508	0.272729	0.193178	0.058688	0.043023	0.582867	0.393363	0.118238	0.426103	0.474214	0.352749
2.636	0.460001	0.26383	0.420125	0.508489	0.385126	0.431738	0.272519	0.193729	0.059438	0.043489	0.57945	0.39529	0.120626	0.426807	0.480656	0.357048
2.6365	0.461404	0.261845	0.424313	0.507766	0.387421	0.439031	0.27229	0.194273	0.060193	0.043962	0.575981	0.397195	0.123032	0.427458	0.487099	0.361354
2.637	0.462744	0.259855	0.42851	0.507028	0.389713	0.446387	0.272042	0.19481	0.060954	0.044443	0.57246	0.39908	0.125455	0.428054	0.493541	0.365666
2.6375	0.464021	0.257859	0.432714	0.506278	0.392002	0.453806	0.271776	0.195341	0.061721	0.044932	0.568888	0.400943	0.127895	0.428596	0.499981	0.369982
2.638	0.465233	0.25586	0.436925	0.505517	0.394287	0.461286	0.271492	0.195867	0.062493	0.045429	0.565268	0.402787	0.130351	0.429082	0.506416	0.374302
2.6385	0.466379	0.253858	0.44114	0.504748	0.396568	0.468828	0.27119	0.196389	0.06327	0.045935	0.5616	0.40461	0.132822	0.429514	0.512845	0.378624
2.639	0.467458	0.251854	0.44536	0.503973	0.398844	0.476429	0.270871	0.196908	0.064054	0.04645	0.557887	0.406413	0.135309	0.429889	0.519265	0.382948
2.6395	0.468469	0.249849	0.449584	0.503194	0.401115	0.484089	0.270534	0.197424	0.064842	0.046974	0.554128	0.408196	0.137809	0.430209	0.525676	0.387271
2.64	0.469412	0.247844	0.453809	0.502415	0.403381	0.491808	0.270181	0.197938	0.065637	0.047507	0.550325	0.40996	0.140323	0.430472	0.532074	0.391594
2.6405	0.470284	0.245839	0.458035	0.501637	0.405642	0.499583	0.26981	0.198453	0.066437	0.04805	0.546478	0.411705	0.14285	0.430679	0.538457	0.395915
2.641	0.471084	0.243836	0.462261	0.500863	0.407898	0.507414	0.269422	0.198967	0.067243	0.048603	0.542588	0.413433	0.145389	0.430829	0.544824	0.400234
2.6415	0.471812	0.241834	0.466484	0.500095	0.410148	0.515299	0.269016	0.199482	0.068054	0.049166	0.538656	0.415145	0.14794	0.430923	0.551172	0.404549
2.642	0.472465	0.239835	0.470705	0.499336	0.412392	0.523236	0.268594	0.199999	0.068872	0.04974	0.534682	0.416841	0.1505	0.43096	0.557499	0.40886
2.6425	0.473043	0.237839	0.474921	0.498587	0.414631	0.531226	0.268153	0.200519	0.069696	0.050324	0.530666	0.418524	0.153071	0.430941	0.563804	0.413166
2.643	0.473543	0.235845	0.47913	0.497851	0.416864	0.539265	0.267696	0.201042	0.070525	0.050918	0.526609	0.420194	0.155651	0.430866	0.570084	0.417464
2.6435	0.473965	0.233855	0.483331	0.497129	0.419092	0.547354	0.26722	0.20157	0.071361	0.051524	0.522511	0.421853	0.15824	0.430737	0.576338	0.421754
2.644	0.474307	0.231869	0.487521	0.496424	0.421312	0.55549	0.266726	0.202103	0.072202	0.052141	0.518374	0.423502	0.160836	0.430552	0.582564	0.426035
2.6445	0.474569	0.229887	0.4917	0.495738	0.423526	0.563672	0.266215	0.202642	0.07305	0.052769	0.514199	0.425143	0.16344	0.430314	0.588759	0.430306
2.645	0.47475	0.227909	0.495866	0.495071	0.425733	0.571899	0.265685	0.203189	0.073904	0.053408	0.509989	0.426777	0.166051	0.430022	0.594923	0.434563
2.6455	0.474848	0.225936	0.500017	0.494426	0.427931	0.580169	0.265136	0.203743	0.074763	0.054059	0.505743	0.428406	0.168667	0.429677	0.601053	0.438808
2.646	0.474864	0.223967	0.504151	0.493804	0.430121	0.58848	0.26457	0.204306	0.075629	0.054722	0.501466	0.430031	0.171289	0.429279	0.607147	0.443037
2.6465	0.474796	0.222003	0.508269	0.493206	0.432303	0.596831	0.263985	0.204879	0.076501	0.055397	0.497158	0.431653	0.173915	0.428829	0.613203	0.44725
2.647	0.474645	0.220044	0.51237	0.492634	0.434477	0.60522	0.263381	0.205462	0.077379	0.056084	0.492821	0.433272	0.176544	0.428327	0.619218	0.451445
2.6475	0.474409	0.218089	0.516452	0.492088	0.436641	0.613644	0.262759	0.206056	0.078262	0.056783	0.488458	0.434891	0.179176	0.427774	0.62519	0.455621
2.648	0.474089	0.216138	0.520515	0.491571	0.438798	0.622101	0.262118	0.206663	0.079152	0.057494	0.484071	0.43651	0.181811	0.427169	0.631116	0.459775
2.6485	0.473686	0.214193	0.524558	0.491082	0.440947	0.630591	0.261459	0.207282	0.080047	0.058218	0.479662	0.43813	0.184446	0.426514	0.636993	0.463907
2.649	0.473198	0.212251	0.528581	0.490623	0.443088	0.63911	0.26078	0.207915	0.080949	0.058954	0.475234	0.439752	0.187081	0.425808	0.642819	0.468016
2.6495	0.472626	0.210314	0.532583	0.490194	0.445222	0.647657	0.260082	0.208562	0.081856	0.059703	0.470788	0.441377	0.189716	0.425053	0.648589	0.4721
2.65	0.471971	0.208382	0.536563	0.489797	0.447348	0.65623	0.259365	0.209225	0.082769	0.060464	0.466329	0.443006	0.192348	0.424247	0.654302	0.476157
2.6505	0.471232	0.206453	0.540522	0.489432	0.449468	0.664827	0.258628	0.209903	0.083688	0.061238	0.461859	0.44464	0.194979	0.423392	0.659954	0.480188
2.651	0.470411	0.204529	0.544458	0.4891	0.45158	0.673448	0.25787	0.210597	0.084613	0.062025	0.457381	0.44628	0.197606	0.422487	0.665541	0.484191
2.6515	0.469506	0.202609	0.548372	0.488801	0.453685	0.682091	0.257091	0.211309	0.085544	0.062825	0.452897	0.447926	0.20023	0.421534	0.67106	0.488165
2.652	0.468519	0.200694	0.552265	0.488535	0.455783	0.690755	0.256292	0.212038	0.086481	0.063639	0.448411	0.44958	0.202849	0.420532	0.676508	0.492109
2.6525	0.467449	0.198783	0.556136	0.488303	0.457872	0.699439	0.25547	0.212786	0.087424	0.064465	0.443926	0.451241	0.205464	0.419481	0.681882	0.496021
2.653	0.466298	0.196877	0.559986	0.488105	0.459954	0.708143	0.254626	0.213554	0.088373	0.065305	0.439443	0.452911	0.208073	0.418383	0.687179	0.499902
2.6535	0.465065	0.194975	0.563815	0.487941	0.462027	0.716865	0.25376	0.21434	0.089328	0.066158	0.434965	0.454589	0.210677	0.417236	0.692394	0.50375
2.654	0.46375	0.193078	0.567625	0.487811	0.464091	0.725604	0.252871	0.215148	0.090288	0.067025	0.430495	0.456276	0.213275	0.416042	0.697527	0.507564
2.6545	0.462354	0.191186	0.571415	0.487716	0.466145	0.734359	0.251959	0.215976	0.091255	0.067905	0.426034	0.457973	0.215867	0.414801	0.702573	0.511344
2.655	0.460876	0.189299	0.575186	0.487654	0.468189	0.743129	0.251024	0.216825	0.092227	0.068799	0.421586	0.459679	0.218451	0.413512	0.707532	0.515089
2.6555	0.459319	0.187417	0.578937	0.487625	0.470221	0.751913	0.250066	0.217697	0.093206	0.069707	0.417153	0.461394	0.221028	0.412175	0.7124	0.518799
2.656	0.457681	0.185541	0.58267	0.487631	0.472241	0.760709	0.249084	0.218592	0.09419	0.070629	0.412736	0.463119	0.223596	0.410791	0.717177	0.522471
2.6565	0.455966	0.183669	0.586384	0.48767	0.474248	0.769515	0.24808	0.21951	0.095179	0.071565	0.408338	0.464853	0.226155	0.409359	0.72186	0.526106
2.657	0.454173	0.181802	0.590079	0.487743	0.47624	0.778331	0.247052	0.220452	0.096175	0.072515	0.403962	0.466598	0.228705	0.40788	0.726448	0.529702
2.6575	0.452306	0.179939	0.593755	0.48785	0.478217	0.787155	0.246003	0.221419	0.097176	0.073479	0.39961	0.468352	0.231245	0.406354	0.73094	0.533259
2.658	0.450366	0.178082	0.597412	0.48799	0.480178	0.795987	0.24493	0.222411	0.098182	0.074457	0.395282	0.470117	0.233776	0.404782	0.735334	0.536775
2.6585	0.448355	0.176231	0.60105	0.488164	0.482121	0.804826	0.243836	0.223429	0.099194	0.07545	0.390982	0.471893	0.236296	0.403164	0.73963	0.540252
2.659	0.446276	0.174384	0.60467	0.488372	0.484046	0.813672	0.242719	0.224472	0.100212	0.076456	0.386712	0.473681	0.238807	0.401502	0.743825	0.543687
2.6595	0.444131	0.172543	0.608272	0.488613	0.485951	0.822524	0.241581	0.225543	0.101235	0.077477	0.382471	0.475482	0.241307	0.399796	0.747919	0.547081
2.66	0.441924	0.170709	0.611855	0.488887	0.487835	0.831382	0.240421	0.22664	0.102264	0.078513	0.378263	0.477295	0.243798	0.398047	0.75191	0.550433
2.6605	0.439657	0.168881	0.615421	0.489194	0.489697	0.840246	0.23924	0.227766	0.103298	0.079562	0.374089	0.479123	0.246279	0.396255	0.755797	0.553743
2.661	0.437333	0.16706	0.61897	0.489535	0.491536	0.849114	0.238038	0.228919	0.104338	0.080627	0.369951	0.480965	0.24875	0.394423	0.759579	0.557009
2.6615	0.434953	0.165246	0.6225	0.489909	0.493349	0.857986	0.236814	0.230101	0.105383	0.081706	0.365849	0.482821	0.25121	0.392549	0.763254	0.560232
2.662	0.432522	0.163441	0.626013	0.490317	0.495135	0.866862	0.235569	0.231312	0.106434	0.082799	0.361786	0.484693	0.25366	0.390636	0.766821	0.563409
2.6625	0.430041	0.161644	0.629508	0.490759	0.496893	0.875739	0.234303	0.232553	0.107491	0.083907	0.357763	0.48658	0.2561	0.388683	0.77028	0.566541
2.663	0.427513	0.159857	0.632984	0.491235	0.498621	0.884616	0.233017	0.233824	0.108553	0.085031	0.353782	0.488482	0.258528	0.386692	0.77363	0.569625
2.6635	0.42494	0.15808	0.636442	0.491745	0.500318	0.893493	0.231711	0.235125	0.109621	0.086169	0.349844	0.490401	0.260946	0.384664	0.776869	0.572661
2.664	0.422324	0.156314	0.63988	0.492289	0.501983	0.902369	0.230385	0.236456	0.110695	0.087322	0.345953	0.492336	0.263352	0.3826	0.779998	0.575648
2.6645	0.419668	0.15456	0.643299	0.492867	0.503614	0.911241	0.229039	0.237818	0.111774	0.08849	0.342108	0.494288	0.265747	0.380501	0.783015	0.578585
2.665	0.416973	0.152817	0.646697	0.493481	0.505211	0.920108	0.227675	0.239211	0.112859	0.089674	0.338312	0.496258	0.268129	0.37837	0.785918	0.581472
2.6655	0.414243	0.151087	0.650074	0.494131	0.506773	0.928968	0.226293	0.240636	0.11395	0.090874	0.334566	0.498246	0.270498	0.376206	0.788708	0.584307
2.666	0.411478	0.14937	0.65343	0.494819	0.508299	0.937821	0.224893	0.242093	0.115046	0.092088	0.330871	0.500253	0.272854	0.374011	0.791381	0.58709
2.6665	0.408683	0.147666	0.656763	0.495543	0.509789	0.946665	0.223476	0.243582	0.116147	0.093319	0.327229	0.50228	0.275196	0.371786	0.793938	0.589821
2.667	0.405858	0.145977	0.660073	0.496307	0.511241	0.955498	0.222042	0.245103	0.117254	0.094565	0.323642	0.504327	0.277524	0.369533	0.796376	0.592499
2.6675	0.403006	0.144304	0.663361	0.497109	0.512657	0.964319	0.220593	0.246658	0.118366	0.095828	0.320111	0.506394	0.279838	0.367251	0.798694	0.595124
2.668	0.400129	0.142645	0.666625	0.497952	0.514034	0.973127	0.219128	0.248245	0.119484	0.097105	0.316636	0.508482	0.282137	0.364943	0.800891	0.597695
2.6685	0.39723	0.141004	0.669867	0.498836	0.515372	0.98192	0.21765	0.249866	0.120606	0.098399	0.313221	0.51059	0.284421	0.362609	0.802966	0.600212
2.669	0.394312	0.139379	0.673086	0.49976	0.516672	0.990697	0.216157	0.251521	0.121733	0.099709	0.309865	0.51272	0.286689	0.360251	0.804915	0.602673
2.6695	0.391377	0.137773	0.676283	0.500727	0.517931	0.999457	0.214651	0.253211	0.122865	0.101034	0.30657	0.51487	0.288942	0.357868	0.806739	0.605079
2.67	0.388428	0.136185	0.679456	0.501736	0.519149	1.008199	0.213132	0.254935	0.124001	0.102375	0.303339	0.517043	0.291179	0.355462	0.808436	0.607428
2.6705	0.385467	0.134617	0.682607	0.502788	0.520326	1.01692	0.211601	0.256694	0.125141	0.103731	0.300171	0.519237	0.2934	0.353034	0.810002	0.609718
2.671	0.382496	0.13307	0.685734	0.503883	0.521462	1.02562	0.210058	0.258488	0.126286	0.105102	0.297069	0.521452	0.295604	0.350583	0.811437	0.611948
2.6715	0.37952	0.131544	0.688838	0.505022	0.522554	1.034296	0.208504	0.260317	0.127433	0.106489	0.294033	0.523691	0.297792	0.348112	0.812738	0.614118
2.672	0.376539	0.13004	0.691917	0.506205	0.523604	1.042946	0.206939	0.262183	0.128585	0.107891	0.291065	0.525951	0.299963	0.34562	0.813902	0.616224
2.6725	0.373557	0.128559	0.694972	0.507432	0.52461	1.051568	0.205363	0.264083	0.129739	0.109308	0.288165	0.528233	0.302115	0.343108	0.814928	0.618265
2.673	0.370576	0.127102	0.698001	0.508702	0.525573	1.060158	0.203777	0.26602	0.130897	0.11074	0.285335	0.530538	0.30425	0.340577	0.815812	0.620239
2.6735	0.367598	0.125669	0.701003	0.510017	0.526492	1.068715	0.202181	0.267992	0.132058	0.112186	0.282574	0.532864	0.306366	0.338026	0.816552	0.622144
2.674	0.364625	0.124261	0.703979	0.511374	0.527366	1.077235	0.200576	0.270001	0.133223	0.113648	0.279885	0.535211	0.308463	0.335458	0.817146	0.623978
2.6745	0.36166	0.122879	0.706926	0.512775	0.528196	1.085715	0.198963	0.272044	0.134389	0.115124	0.277267	0.537578	0.31054	0.332871	0.81759	0.625738
2.675	0.358706	0.121524	0.709843	0.514218	0.528982	1.094152	0.197341	0.274124	0.135559	0.116615	0.274722	0.539966	0.312596	0.330268	0.817883	0.627423
2.6755	0.355763	0.120195	0.71273	0.515702	0.529722	1.102541	0.195712	0.276239	0.136731	0.11812	0.27225	0.542372	0.314631	0.327649	0.818024	0.629032
2.676	0.352834	0.118895	0.715586	0.517228	0.530418	1.11088	0.194076	0.278389	0.137905	0.11964	0.269851	0.544797	0.316645	0.325015	0.818012	0.630562
2.6765	0.349922	0.117622	0.718409	0.518795	0.531068	1.119165	0.192433	0.280574	0.139081	0.121174	0.267527	0.547239	0.318637	0.322367	0.817847	0.632014
2.677	0.347028	0.116379	0.721199	0.520401	0.531671	1.127392	0.190785	0.282794	0.140259	0.122722	0.265278	0.549697	0.320605	0.319708	0.817528	0.633387
2.6775	0.344154	0.115165	0.723954	0.522047	0.532227	1.135556	0.189132	0.285049	0.141438	0.124284	0.263104	0.552172	0.322551	0.317038	0.817056	0.634679
2.678	0.341302	0.113981	0.726673	0.523733	0.532736	1.143654	0.187475	0.287338	0.142618	0.125859	0.261007	0.554663	0.324474	0.31436	0.816432	0.635892
2.6785	0.338472	0.112828	0.729356	0.525456	0.533197	1.151681	0.185814	0.289662	0.143799	0.127448	0.258986	0.557168	0.326373	0.311674	0.815658	0.637023
2.679	0.335668	0.111706	0.732001	0.527217	0.533609	1.159632	0.184151	0.29202	0.14498	0.12905	0.257043	0.559689	0.328249	0.308984	0.814732	0.638072
2.6795	0.33289	0.110616	0.734607	0.529014	0.533973	1.167504	0.182485	0.294412	0.146161	0.130665	0.255177	0.562224	0.3301	0.30629	0.813657	0.639039
2.68	0.33014	0.109557	0.737171	0.530848	0.534288	1.17529	0.180818	0.296838	0.147342	0.132292	0.253389	0.564775	0.331926	0.303594	0.812431	0.639923
2.6805	0.327419	0.108532	0.739693	0.532717	0.534554	1.182985	0.179149	0.299297	0.148522	0.133931	0.251679	0.567339	0.333728	0.300899	0.811057	0.640722
2.681	0.324729	0.10754	0.742171	0.534621	0.534771	1.190586	0.17748	0.301789	0.1497	0.135582	0.250048	0.569918	0.335504	0.298205	0.809533	0.641437
2.6815	0.32207	0.106581	0.744604	0.536558	0.534939	1.198085	0.175812	0.304313	0.150878	0.137244	0.248495	0.57251	0.337255	0.295516	0.807861	0.642067
2.682	0.319443	0.105657	0.746988	0.538528	0.535059	1.205477	0.174144	0.306869	0.152053	0.138917	0.247021	0.575116	0.338979	0.292833	0.806042	0.642612
2.6825	0.316851	0.104768	0.749325	0.540529	0.535129	1.212757	0.172477	0.309456	0.153227	0.1406	0.245626	0.577735	0.340675	0.290158	0.804075	0.643072
2.683	0.314293	0.103914	0.751613	0.542561	0.535151	1.219919	0.170812	0.312074	0.154398	0.142292	0.24431	0.580366	0.342345	0.287493	0.801965	0.643446
2.6835	0.311771	0.103096	0.753851	0.544621	0.535123	1.226959	0.16915	0.314722	0.155567	0.143993	0.243073	0.58301	0.343986	0.28484	0.799711	0.643736
2.684	0.309286	0.102314	0.75604	0.546709	0.535048	1.233873	0.16749	0.317398	0.156732	0.145703	0.241915	0.585667	0.345599	0.282201	0.797317	0.643942
2.6845	0.306839	0.101568	0.758181	0.548823	0.534925	1.240656	0.165834	0.320103	0.157894	0.147421	0.240836	0.588335	0.347184	0.279577	0.794787	0.644064
2.685	0.30443	0.10086	0.760273	0.550961	0.534756	1.247304	0.164182	0.322835	0.159052	0.149146	0.239836	0.591017	0.34874	0.276971	0.792123	0.644103
2.6855	0.30206	0.100189	0.762317	0.553123	0.534542	1.253812	0.162534	0.325594	0.160205	0.150878	0.238914	0.593711	0.350268	0.274383	0.789329	0.64406
2.686	0.29973	0.099556	0.764314	0.555306	0.534284	1.260177	0.160892	0.328378	0.161354	0.152616	0.238071	0.596418	0.351765	0.271816	0.786408	0.643936
2.6865	0.297441	0.098961	0.766263	0.55751	0.533983	1.266392	0.159256	0.331186	0.162497	0.154358	0.237307	0.599139	0.353233	0.26927	0.783363	0.643732
2.687	0.295193	0.098404	0.768166	0.559732	0.533641	1.272454	0.157626	0.334019	0.163634	0.156106	0.236621	0.601873	0.35467	0.266747	0.780198	0.643448
2.6875	0.292986	0.097887	0.770024	0.561973	0.533259	1.278357	0.156003	0.336875	0.164765	0.157857	0.236013	0.604619	0.356076	0.264249	0.776916	0.643085
2.688	0.290822	0.097409	0.771836	0.564231	0.532839	1.284097	0.154388	0.339753	0.165889	0.159611	0.235483	0.607378	0.35745	0.261777	0.77352	0.642644
2.6885	0.288701	0.096971	0.773605	0.566504	0.532381	1.289671	0.152781	0.342653	0.167005	0.161367	0.23503	0.61015	0.358794	0.259331	0.770012	0.642125
2.689	0.286623	0.096573	0.775332	0.568791	0.531887	1.295075	0.151182	0.345573	0.168113	0.163124	0.234654	0.612932	0.360105	0.256913	0.766397	0.641528
2.6895	0.284589	0.096215	0.777017	0.57109	0.531357	1.300308	0.149592	0.348514	0.169212	0.164882	0.234355	0.615725	0.361384	0.254524	0.762678	0.640853
2.69	0.282599	0.095898	0.778662	0.573401	0.530792	1.305367	0.148011	0.351473	0.170301	0.166639	0.234133	0.618527	0.362631	0.252165	0.758858	0.640101
2.6905	0.280653	0.095621	0.780269	0.575722	0.530194	1.31025	0.146441	0.354451	0.17138	0.168395	0.233986	0.621338	0.363846	0.249838	0.754942	0.639272
2.691	0.278752	0.095386	0.781839	0.578052	0.529561	1.314957	0.14488	0.357446	0.172448	0.170148	0.233916	0.624156	0.365028	0.247542	0.750933	0.638367
2.6915	0.276896	0.095193	0.783373	0.580389	0.528896	1.319484	0.14333	0.360458	0.173503	0.171898	0.233922	0.626979	0.366177	0.245279	0.746836	0.637387
2.692	0.275086	0.095041	0.784872	0.582733	0.528198	1.32383	0.141791	0.363487	0.174546	0.173643	0.234003	0.629807	0.367293	0.24305	0.742653	0.636332
2.6925	0.273321	0.094931	0.786338	0.585082	0.527468	1.327994	0.140263	0.366532	0.175575	0.175383	0.234159	0.632638	0.368376	0.240854	0.73839	0.635204
2.693	0.271601	0.094863	0.787772	0.587435	0.526705	1.331974	0.138747	0.369592	0.176589	0.177116	0.234391	0.635471	0.369425	0.238694	0.73405	0.634005
2.6935	0.269928	0.094838	0.789174	0.589792	0.525911	1.335768	0.137242	0.372668	0.177587	0.17884	0.234698	0.638306	0.370441	0.236569	0.729637	0.632736
2.694	0.2683	0.094855	0.790547	0.592151	0.525084	1.339377	0.13575	0.375759	0.178569	0.180556	0.235081	0.641142	0.371423	0.23448	0.725153	0.631398
2.6945	0.266719	0.094915	0.79189	0.59451	0.524225	1.342799	0.13427	0.378866	0.179534	0.182261	0.235539	0.643979	0.372372	0.232428	0.720603	0.629992
2.695	0.265183	0.095018	0.793206	0.596869	0.523335	1.346034	0.132803	0.381987	0.18048	0.183954	0.236073	0.646815	0.373286	0.230412	0.71599	0.628521
2.6955	0.263694	0.095165	0.794495	0.599227	0.522414	1.349081	0.131349	0.385122	0.181406	0.185634	0.236683	0.64965	0.374166	0.228433	0.711317	0.626984
2.696	0.26225	0.095356	0.795759	0.601583	0.521462	1.351939	0.129908	0.388272	0.182312	0.187299	0.237368	0.652484	0.375011	0.226492	0.706588	0.625384
2.6965	0.260853	0.09559	0.797	0.603937	0.52048	1.354608	0.128481	0.391435	0.183195	0.188948	0.238129	0.655316	0.375821	0.224589	0.701806	0.62372
2.697	0.259501	0.095868	0.798219	0.606287	0.519467	1.357087	0.127068	0.394612	0.184056	0.190579	0.238966	0.658145	0.376596	0.222724	0.696976	0.621995
2.6975	0.258195	0.096191	0.799419	0.608634	0.518426	1.359375	0.125669	0.397802	0.184892	0.192191	0.239878	0.660969	0.377336	0.220898	0.692101	0.620208
2.698	0.256935	0.096558	0.800601	0.610977	0.517355	1.361474	0.124284	0.401005	0.185702	0.193783	0.240866	0.663788	0.378039	0.219111	0.687185	0.618361
2.6985	0.255719	0.096969	0.801766	0.613316	0.516256	1.363384	0.122914	0.404221	0.186486	0.195353	0.241928	0.6666	0.378706	0.217363	0.682231	0.616454
2.699	0.254547	0.097426	0.802917	0.615651	0.51513	1.365104	0.121559	0.407448	0.187242	0.196899	0.243066	0.669403	0.379335	0.215655	0.677242	0.614487
2.6995	0.25342	0.097926	0.804055	0.617983	0.513976	1.366634	0.120219	0.410688	0.187968	0.19842	0.244278	0.672196	0.379927	0.213987	0.672222	0.612463
2.7	0.252337	0.098472	0.805182	0.620311	0.512797	1.367976	0.118894	0.41394	0.188665	0.199915	0.245564	0.674978	0.380481	0.212359	0.667174	0.61038
2.7005	0.251296	0.099063	0.806299	0.622636	0.511592	1.369127	0.117584	0.417204	0.18933	0.201381	0.246923	0.677748	0.380995	0.210771	0.662101	0.608239
2.701	0.250299	0.099698	0.807409	0.624956	0.510361	1.370088	0.11629	0.42048	0.189964	0.202818	0.248355	0.680505	0.381471	0.209223	0.657006	0.606042
2.7015	0.249344	0.100378	0.808513	0.627273	0.509107	1.370857	0.115011	0.423767	0.190564	0.204223	0.24986	0.68325	0.381907	0.207716	0.651893	0.603788
2.702	0.248431	0.101103	0.809613	0.629585	0.507827	1.371435	0.113748	0.427066	0.191131	0.205596	0.251436	0.685982	0.382304	0.20625	0.646765	0.601478
2.7025	0.247559	0.101872	0.81071	0.631893	0.506524	1.371819	0.1125	0.430375	0.191663	0.206935	0.253083	0.688701	0.382661	0.204824	0.641625	0.599113
2.703	0.246729	0.102687	0.811806	0.634196	0.505198	1.372008	0.111268	0.433694	0.192159	0.208238	0.2548	0.691406	0.382977	0.203439	0.636476	0.596694
2.7035	0.245938	0.103546	0.812903	0.636493	0.503848	1.372001	0.110052	0.437023	0.192618	0.209504	0.256587	0.694098	0.383253	0.202094	0.631322	0.59422
2.704	0.245188	0.104449	0.814001	0.638784	0.502475	1.371796	0.108851	0.440361	0.193039	0.210732	0.258441	0.696776	0.383489	0.200789	0.626164	0.591693
2.7045	0.244476	0.105397	0.815102	0.641069	0.50108	1.371392	0.107665	0.443708	0.193422	0.21192	0.260363	0.699439	0.383683	0.199525	0.621006	0.589113
2.705	0.243803	0.106389	0.816207	0.643347	0.499663	1.370789	0.106495	0.447061	0.193765	0.213068	0.262351	0.702087	0.383837	0.1983	0.61585	0.58648
2.7055	0.243167	0.107425	0.817317	0.645618	0.498225	1.369986	0.105339	0.450422	0.194068	0.214173	0.264405	0.704718	0.38395	0.197114	0.610699	0.583796
2.706	0.242569	0.108505	0.818433	0.64788	0.496767	1.368984	0.104199	0.453788	0.194328	0.215235	0.266523	0.707331	0.384021	0.195968	0.605555	0.581061
2.7065	0.242007	0.109628	0.819555	0.650133	0.495291	1.367781	0.103074	0.457159	0.194547	0.216252	0.268704	0.709925	0.38405	0.194861	0.600421	0.578277
2.707	0.241481	0.110795	0.820683	0.652376	0.493799	1.36638	0.101965	0.460535	0.194723	0.217223	0.270947	0.712498	0.384036	0.193792	0.595298	0.575446
2.7075	0.240991	0.112004	0.821818	0.65461	0.492293	1.364781	0.10087	0.463915	0.194856	0.218146	0.27325	0.71505	0.383979	0.192761	0.590189	0.572569
2.708	0.240536	0.113257	0.822959	0.656834	0.490776	1.362986	0.09979	0.467299	0.194947	0.219022	0.275612	0.717579	0.383878	0.191768	0.585096	0.569647
2.7085	0.240115	0.114552	0.824107	0.659046	0.48925	1.360995	0.098725	0.470687	0.194995	0.219848	0.278032	0.720082	0.383733	0.190813	0.580022	0.566683
2.709	0.23973	0.115889	0.82526	0.661249	0.487718	1.35881	0.097675	0.474078	0.195001	0.220624	0.280509	0.722559	0.383544	0.189896	0.574968	0.563678
2.7095	0.239378	0.117268	0.826419	0.66344	0.486182	1.356433	0.096639	0.477474	0.194965	0.221349	0.28304	0.725007	0.383311	0.189015	0.569936	0.560633
2.71	0.239061	0.118688	0.827582	0.66562	0.484645	1.353866	0.095619	0.480872	0.194888	0.222023	0.285624	0.727424	0.383033	0.188171	0.564929	0.55755
2.7105	0.238777	0.12015	0.828748	0.667789	0.483109	1.351112	0.094613	0.484274	0.19477	0.222645	0.288259	0.72981	0.38271	0.187364	0.559949	0.554431
2.711	0.238526	0.121652	0.829917	0.669947	0.481577	1.348175	0.093622	0.487679	0.194611	0.223215	0.290944	0.732161	0.382343	0.186593	0.554996	0.551276
2.7115	0.238307	0.123194	0.831087	0.672094	0.48005	1.345061	0.092645	0.491087	0.194414	0.223733	0.293677	0.734477	0.381933	0.185859	0.550073	0.548087
2.712	0.238121	0.124776	0.832256	0.674232	0.478532	1.341773	0.091682	0.494497	0.194179	0.224199	0.296455	0.736756	0.381479	0.185161	0.54518	0.544867
2.7125	0.237966	0.126397	0.833423	0.676359	0.477024	1.338318	0.090734	0.497908	0.193908	0.224613	0.299276	0.738997	0.380982	0.1845	0.540321	0.541617
2.713	0.237842	0.128056	0.834587	0.678477	0.47553	1.334699	0.0898	0.501321	0.193602	0.224976	0.30214	0.741198	0.380443	0.183874	0.535495	0.53834
2.7135	0.237748	0.129754	0.835748	0.680586	0.474051	1.330922	0.088879	0.504736	0.193263	0.225286	0.305043	0.74336	0.379864	0.183283	0.530704	0.535039
2.714	0.237684	0.131489	0.836903	0.682688	0.472591	1.326991	0.087973	0.508154	0.192891	0.225545	0.307983	0.745481	0.379244	0.182728	0.525949	0.531716
2.7145	0.237648	0.133261	0.838055	0.684784	0.471151	1.322911	0.08708	0.511575	0.19249	0.225752	0.310958	0.747561	0.378585	0.182208	0.521233	0.528375
2.715	0.237639	0.135069	0.839201	0.686874	0.469734	1.318686	0.0862	0.515	0.192059	0.225908	0.313966	0.7496	0.377887	0.181723	0.516555	0.525017
2.7155	0.237658	0.136913	0.840344	0.688959	0.468343	1.314321	0.085334	0.518431	0.1916	0.226013	0.317004	0.751597	0.377152	0.181272	0.511917	0.521646
2.716	0.237702	0.138791	0.841482	0.691042	0.46698	1.309821	0.084481	0.521867	0.191115	0.226067	0.32007	0.753552	0.376379	0.180855	0.507321	0.518263
2.7165	0.237772	0.140703	0.842617	0.693122	0.465647	1.305191	0.083641	0.525312	0.190605	0.226071	0.323162	0.755465	0.375569	0.180472	0.502766	0.514873
2.717	0.237866	0.142648	0.843749	0.695201	0.464345	1.300437	0.082814	0.528764	0.190071	0.226024	0.326276	0.757336	0.374724	0.180123	0.498255	0.511476
2.7175	0.237983	0.144626	0.844879	0.69728	0.463077	1.295561	0.082	0.532224	0.189514	0.225926	0.329411	0.759163	0.373844	0.179807	0.493787	0.508075
2.718	0.238123	0.146635	0.846006	0.699361	0.461845	1.29057	0.081198	0.535693	0.188935	0.225779	0.332562	0.760946	0.37293	0.179524	0.489365	0.504674
2.7185	0.238286	0.148674	0.847132	0.701444	0.46065	1.285468	0.08041	0.539172	0.188336	0.225581	0.335729	0.762686	0.371984	0.179274	0.484989	0.501275
2.719	0.238469	0.150743	0.848256	0.703532	0.459494	1.280258	0.079635	0.542659	0.187717	0.225334	0.338907	0.764382	0.371006	0.179058	0.48066	0.497881
2.7195	0.238673	0.15284	0.849378	0.705625	0.458379	1.274944	0.078872	0.546157	0.187081	0.225037	0.342094	0.766032	0.369999	0.178874	0.476379	0.494495
2.72	0.238896	0.154965	0.850498	0.707725	0.457306	1.269531	0.078122	0.549664	0.186428	0.224692	0.345288	0.767638	0.368964	0.178723	0.472147	0.491119
2.7205	0.239138	0.157116	0.851615	0.709833	0.456276	1.264022	0.077385	0.553181	0.185759	0.224298	0.348485	0.769197	0.367902	0.178605	0.467966	0.487757
2.721	0.239398	0.159293	0.852728	0.711949	0.455291	1.25842	0.076661	0.556708	0.185077	0.223857	0.351682	0.770709	0.366816	0.178519	0.463837	0.484412
2.7215	0.239674	0.161494	0.853837	0.714075	0.454353	1.25273	0.07595	0.560246	0.184383	0.223369	0.354878	0.772173	0.365707	0.178465	0.459761	0.481087
2.722	0.239967	0.163718	0.854942	0.71621	0.453462	1.246956	0.075251	0.563793	0.183677	0.222835	0.358069	0.773589	0.364577	0.178443	0.455738	0.477784
2.7225	0.240274	0.165963	0.856041	0.718356	0.452621	1.241101	0.074565	0.567351	0.18296	0.222258	0.361252	0.774957	0.363428	0.178453	0.451772	0.474506
2.723	0.240594	0.168229	0.857134	0.720513	0.451831	1.235171	0.073892	0.570919	0.182235	0.221638	0.364425	0.776275	0.362263	0.178494	0.447861	0.471257
2.7235	0.240928	0.170515	0.858219	0.72268	0.451092	1.22917	0.073231	0.574496	0.181502	0.220976	0.367585	0.777543	0.361082	0.178566	0.444008	0.468038
2.724	0.241274	0.172819	0.859295	0.724858	0.450407	1.223101	0.072583	0.578082	0.180762	0.220275	0.370729	0.778761	0.359887	0.178669	0.440214	0.464852
2.7245	0.24163	0.175141	0.860361	0.727047	0.449775	1.216969	0.071948	0.581677	0.180016	0.219535	0.373855	0.779928	0.35868	0.178802	0.436479	0.461702
2.725	0.241996	0.177477	0.861415	0.729246	0.449199	1.210777	0.071326	0.585281	0.179265	0.218759	0.376961	0.781043	0.357462	0.178964	0.432805	0.45859
2.7255	0.242372	0.179829	0.862457	0.731455	0.44868	1.204528	0.070717	0.588893	0.178511	0.217947	0.380045	0.782105	0.356235	0.179155	0.429193	0.455518
2.726	0.242756	0.182193	0.863484	0.733673	0.448217	1.198226	0.070122	0.592513	0.177753	0.2171	0.383103	0.783111	0.355	0.179375	0.425645	0.45249
2.7265	0.243146	0.18457	0.864496	0.735899	0.447813	1.191874	0.06954	0.59614	0.176994	0.216221	0.386134	0.784062	0.353758	0.179623	0.422161	0.449506
2.727	0.243543	0.186956	0.86549	0.738134	0.447467	1.185474	0.068973	0.599775	0.176233	0.21531	0.389135	0.784955	0.352511	0.179898	0.418744	0.44657
2.7275	0.243945	0.189352	0.866465	0.740375	0.44718	1.17903	0.068419	0.603417	0.175472	0.214368	0.392104	0.785788	0.35126	0.180201	0.415395	0.443682
2.728	0.244352	0.191756	0.867419	0.742622	0.446953	1.172544	0.06788	0.607065	0.174712	0.213398	0.39504	0.786561	0.350006	0.18053	0.412115	0.440845
2.7285	0.244762	0.194166	0.868352	0.744873	0.446785	1.166019	0.067355	0.61072	0.173953	0.2124	0.397941	0.787271	0.348751	0.180886	0.408905	0.43806
2.729	0.245175	0.196581	0.869261	0.747127	0.446678	1.159458	0.066844	0.614382	0.173196	0.211375	0.400803	0.787917	0.347496	0.181267	0.405767	0.435329
2.7295	0.245591	0.199	0.870145	0.749382	0.446631	1.152865	0.066349	0.618049	0.172442	0.210324	0.403627	0.788497	0.346242	0.181674	0.402703	0.432654
2.73	0.246007	0.201422	0.871002	0.751636	0.446644	1.146243	0.065868	0.621722	0.171691	0.209249	0.406409	0.789009	0.344992	0.182105	0.399712	0.430035
2.7305	0.246425	0.203844	0.87183	0.753888	0.446717	1.139596	0.065402	0.625399	0.170945	0.208151	0.409149	0.789453	0.343745	0.18256	0.396796	0.427474
2.731	0.246843	0.206266	0.872627	0.756136	0.446849	1.132929	0.064952	0.629079	0.170204	0.20703	0.411843	0.789828	0.342505	0.183038	0.393956	0.424973
2.7315	0.24726	0.208687	0.873391	0.758378	0.447041	1.126246	0.064517	0.632763	0.169469	0.205888	0.41449	0.790132	0.34127	0.183539	0.391193	0.422532
2.732	0.247677	0.211104	0.87412	0.760612	0.447292	1.119549	0.064097	0.636448	0.168741	0.204726	0.417088	0.790363	0.340043	0.184061	0.388507	0.420152
2.7325	0.248092	0.213517	0.874812	0.762836	0.447602	1.112843	0.063693	0.640133	0.16802	0.203545	0.419637	0.79052	0.338825	0.184605	0.385899	0.417835
2.733	0.248506	0.215925	0.875466	0.765049	0.44797	1.106132	0.063306	0.643818	0.167306	0.202345	0.422134	0.790603	0.337617	0.185168	0.38337	0.415581
2.7335	0.248919	0.218325	0.876078	0.767249	0.448396	1.099419	0.062934	0.6475	0.166601	0.201128	0.424579	0.790609	0.33642	0.18575	0.38092	0.413391
2.734	0.249329	0.220718	0.876647	0.769434	0.448879	1.092707	0.062579	0.651179	0.165905	0.199894	0.426971	0.790537	0.335234	0.186351	0.37855	0.411265
2.7345	0.249738	0.223101	0.877171	0.771602	0.449418	1.086002	0.062241	0.654852	0.165219	0.198645	0.42931	0.790387	0.334062	0.186969	0.376259	0.409205
2.735	0.250145	0.225473	0.877646	0.773751	0.450013	1.079305	0.06192	0.658518	0.164543	0.197381	0.431594	0.790158	0.332903	0.187603	0.374049	0.407211
2.7355	0.250551	0.227833	0.878069	0.775879	0.450662	1.072621	0.061617	0.662175	0.163877	0.196104	0.433824	0.789849	0.331759	0.188252	0.37192	0.405283
2.736	0.250954	0.23018	0.878438	0.777985	0.451365	1.065952	0.061331	0.665822	0.163222	0.194813	0.435998	0.789459	0.330631	0.188915	0.369872	0.403421
2.7365	0.251355	0.232512	0.878749	0.780064	0.45212	1.059301	0.061063	0.669457	0.162578	0.193511	0.438118	0.788989	0.329519	0.189592	0.367904	0.401625
2.737	0.251754	0.234829	0.879	0.782116	0.452927	1.052671	0.060813	0.673078	0.161947	0.192197	0.440182	0.788437	0.328425	0.19028	0.366018	0.399896
2.7375	0.252152	0.237129	0.879186	0.784138	0.453784	1.046065	0.060581	0.676682	0.161327	0.190873	0.442191	0.787803	0.327348	0.190979	0.364213	0.398234
2.738	0.252547	0.239411	0.879307	0.786127	0.454689	1.039485	0.060368	0.680268	0.16072	0.18954	0.444147	0.787086	0.32629	0.191689	0.362489	0.396637
2.7385	0.25294	0.241674	0.879358	0.788081	0.455643	1.032935	0.060173	0.683833	0.160126	0.188197	0.44605	0.786286	0.325252	0.192407	0.360846	0.395106
2.739	0.253331	0.243917	0.879338	0.789996	0.456643	1.026418	0.059998	0.687375	0.159545	0.186846	0.4479	0.785401	0.324233	0.193133	0.359284	0.393641
2.7395	0.253721	0.246138	0.879244	0.791871	0.45769	1.019935	0.059842	0.690892	0.158978	0.185488	0.449698	0.784432	0.323234	0.193866	0.357801	0.39224
2.74	0.25411	0.248335	0.879074	0.793702	0.458783	1.01349	0.059705	0.694381	0.158425	0.184124	0.451446	0.783378	0.322255	0.194605	0.356399	0.390904
2.7405	0.254498	0.250509	0.878826	0.795487	0.45992	1.007084	0.059588	0.69784	0.157887	0.182753	0.453142	0.782239	0.321297	0.195348	0.355076	0.38963
2.741	0.254885	0.252656	0.878497	0.797222	0.461103	1.000721	0.05949	0.701268	0.157363	0.181377	0.454788	0.781015	0.32036	0.196095	0.353832	0.38842
2.7415	0.255272	0.254776	0.878086	0.798905	0.462331	0.994401	0.059413	0.704662	0.156853	0.179995	0.456383	0.779707	0.319443	0.196844	0.352666	0.38727
2.742	0.25566	0.256867	0.87759	0.800534	0.463604	0.988127	0.059355	0.708021	0.15636	0.178609	0.457929	0.778315	0.318547	0.197594	0.351578	0.386182
2.7425	0.256048	0.258928	0.877008	0.802107	0.464921	0.981899	0.059318	0.711341	0.155882	0.177219	0.459425	0.77684	0.317672	0.198346	0.350568	0.385153
2.743	0.256438	0.260958	0.876338	0.803622	0.466283	0.97572	0.059301	0.714621	0.155419	0.175826	0.460871	0.775283	0.316817	0.199096	0.349636	0.384182
2.7435	0.256829	0.262955	0.875578	0.805078	0.467689	0.969588	0.059304	0.717859	0.154973	0.174429	0.462267	0.773645	0.315984	0.199846	0.34878	0.383268
2.744	0.257223	0.264918	0.874727	0.806472	0.469139	0.963506	0.059328	0.721053	0.154542	0.173028	0.463614	0.771925	0.31517	0.200595	0.348002	0.38241
2.7445	0.25762	0.266846	0.873783	0.807802	0.470632	0.957474	0.059373	0.724202	0.154128	0.171626	0.464912	0.770124	0.314377	0.20134	0.347301	0.381607
2.745	0.258019	0.268738	0.872744	0.809068	0.472169	0.951492	0.059438	0.727305	0.153731	0.17022	0.466159	0.768242	0.313604	0.202083	0.346677	0.380857
2.7455	0.258422	0.270594	0.871609	0.810268	0.47375	0.945559	0.059525	0.730361	0.15335	0.168813	0.467355	0.76628	0.31285	0.202822	0.34613	0.38016
2.746	0.258829	0.272412	0.870378	0.811402	0.475374	0.939676	0.059632	0.733368	0.152985	0.167403	0.468501	0.764237	0.312116	0.203556	0.34566	0.379513
2.7465	0.259238	0.274192	0.869051	0.812469	0.477042	0.933843	0.059761	0.736327	0.152638	0.165991	0.469596	0.762113	0.3114	0.204285	0.345267	0.378915
2.747	0.259652	0.275934	0.867625	0.813466	0.478753	0.928059	0.059911	0.739236	0.152307	0.164578	0.470639	0.759908	0.310702	0.205008	0.34495	0.378365
2.7475	0.260069	0.277635	0.8661	0.814395	0.480507	0.922325	0.060083	0.742094	0.151993	0.163163	0.471631	0.757623	0.310022	0.205725	0.344709	0.377861
2.748	0.260491	0.279296	0.864477	0.815253	0.482305	0.91664	0.060276	0.744902	0.151695	0.161747	0.47257	0.755257	0.309359	0.206435	0.344543	0.377401
2.7485	0.260917	0.280915	0.862755	0.816039	0.484145	0.911003	0.060491	0.747657	0.151414	0.16033	0.473458	0.752811	0.308713	0.207138	0.344452	0.376985
2.749	0.261347	0.282493	0.860935	0.816751	0.486027	0.905415	0.060727	0.750359	0.15115	0.158912	0.474294	0.750285	0.308083	0.207834	0.344435	0.376609
2.7495	0.261782	0.284028	0.859018	0.817389	0.487951	0.899874	0.060985	0.753008	0.150902	0.157493	0.475077	0.747679	0.307468	0.208522	0.344492	0.376273
2.75	0.262223	0.28552	0.857005	0.81795	0.489916	0.89438	0.061266	0.755603	0.15067	0.156074	0.475809	0.744995	0.306868	0.209202	0.344622	0.375975
2.7505	0.262668	0.286968	0.854898	0.818434	0.491922	0.888933	0.061568	0.758143	0.150454	0.154655	0.47649	0.742232	0.306284	0.209873	0.344823	0.375712
2.751	0.26312	0.288374	0.852697	0.818837	0.493967	0.88353	0.061892	0.760628	0.150254	0.153235	0.477118	0.739392	0.305713	0.210536	0.345094	0.375483
2.7515	0.263577	0.289737	0.850404	0.819159	0.496051	0.878172	0.062238	0.763058	0.150069	0.151815	0.477696	0.736473	0.305156	0.211189	0.345435	0.375285
2.752	0.264041	0.291057	0.848019	0.819399	0.498175	0.872855	0.062606	0.765433	0.1499	0.150396	0.478222	0.733477	0.304613	0.211832	0.345845	0.375118
2.7525	0.26451	0.292335	0.845545	0.819554	0.500336	0.867578	0.062996	0.767754	0.149747	0.148976	0.478698	0.730403	0.304082	0.212465	0.346322	0.374977
2.753	0.264986	0.293572	0.842983	0.819623	0.502536	0.862339	0.063408	0.770021	0.149609	0.147557	0.479123	0.727253	0.303563	0.213087	0.346864	0.374862
2.7535	0.265468	0.294768	0.840335	0.819605	0.504773	0.857137	0.063843	0.772235	0.149486	0.146138	0.479498	0.724027	0.303056	0.213698	0.347472	0.374771
2.754	0.265956	0.295923	0.837602	0.8195	0.507048	0.851968	0.0643	0.774396	0.149379	0.144719	0.479823	0.720725	0.302559	0.214298	0.348144	0.374701
2.7545	0.26645	0.297039	0.834787	0.819305	0.50936	0.84683	0.06478	0.776504	0.149287	0.143301	0.4801	0.717348	0.302073	0.214886	0.348879	0.374651
2.755	0.26695	0.298117	0.83189	0.81902	0.511708	0.841723	0.065282	0.778561	0.14921	0.141883	0.480327	0.713896	0.301596	0.215464	0.349677	0.374619
2.7555	0.267456	0.299158	0.828914	0.818645	0.514091	0.836643	0.065806	0.780569	0.149148	0.140466	0.480506	0.71037	0.301128	0.21603	0.350538	0.374602
2.756	0.267968	0.300162	0.825861	0.818178	0.516509	0.83159	0.066353	0.782527	0.149102	0.13905	0.480637	0.70677	0.300669	0.216584	0.351461	0.374601
2.7565	0.268486	0.30113	0.82273	0.817618	0.51896	0.826562	0.066922	0.784438	0.149071	0.137634	0.480719	0.703098	0.300218	0.217127	0.352446	0.374613
2.757	0.269011	0.302063	0.819523	0.816965	0.521443	0.821559	0.067514	0.786301	0.149056	0.13622	0.480753	0.699354	0.299773	0.217657	0.353494	0.374638
2.7575	0.269541	0.302962	0.816241	0.816219	0.523957	0.816579	0.068128	0.788119	0.149057	0.134808	0.480739	0.695539	0.299336	0.218176	0.354603	0.374673
2.758	0.270078	0.303827	0.812885	0.815378	0.526501	0.81162	0.068765	0.789891	0.149074	0.133397	0.480675	0.691655	0.298904	0.218682	0.355774	0.374718
2.7585	0.270621	0.304658	0.809455	0.814442	0.529073	0.806681	0.069424	0.791618	0.149106	0.131987	0.480562	0.687702	0.298478	0.219176	0.357006	0.374772
2.759	0.27117	0.305456	0.805952	0.813409	0.531671	0.801761	0.070105	0.793301	0.149154	0.130581	0.4804	0.683681	0.298056	0.219656	0.3583	0.374835
2.7595	0.271725	0.306222	0.802377	0.812279	0.534294	0.79686	0.070809	0.79494	0.149219	0.129177	0.480188	0.679594	0.297639	0.220122	0.359654	0.374904
2.76	0.272285	0.306957	0.798731	0.81105	0.53694	0.791977	0.071536	0.796534	0.149299	0.127775	0.479926	0.675442	0.297226	0.220574	0.361068	0.374979
2.7605	0.272851	0.307661	0.795013	0.809721	0.539606	0.787112	0.072285	0.798084	0.149396	0.126377	0.479614	0.671224	0.296816	0.221011	0.362541	0.375059
2.761	0.273421	0.308336	0.791226	0.808291	0.542292	0.782264	0.073056	0.79959	0.149509	0.124983	0.479251	0.666941	0.296409	0.221433	0.364074	0.375143
2.7615	0.273995	0.308981	0.787369	0.806757	0.544994	0.777434	0.073849	0.80105	0.149639	0.123592	0.478837	0.662596	0.296005	0.22184	0.365666	0.37523
2.762	0.274573	0.309598	0.783444	0.80512	0.547711	0.772623	0.074664	0.802465	0.149785	0.122207	0.478372	0.658187	0.295603	0.222231	0.367316	0.375319
2.7625	0.275153	0.310188	0.77945	0.803377	0.55044	0.767831	0.075501	0.803833	0.149947	0.120826	0.477855	0.653717	0.295203	0.222606	0.369025	0.375409
2.763	0.275736	0.310751	0.775387	0.801527	0.553179	0.763058	0.07636	0.805155	0.150126	0.119451	0.477286	0.649187	0.294804	0.222965	0.370793	0.375502
2.7635	0.27632	0.311289	0.771257	0.799568	0.555926	0.758304	0.077241	0.80643	0.150322	0.118081	0.476665	0.644597	0.294406	0.223307	0.37262	0.375596
2.764	0.276904	0.311801	0.767059	0.797499	0.558679	0.753571	0.078144	0.807657	0.150535	0.116718	0.475991	0.639951	0.294008	0.223633	0.374507	0.375691
2.7645	0.277489	0.312288	0.762792	0.795319	0.561435	0.748857	0.079067	0.808835	0.150765	0.115362	0.475263	0.635248	0.293609	0.223941	0.376453	0.375789
2.765	0.278072	0.312751	0.758456	0.793028	0.564193	0.744164	0.080012	0.809963	0.151012	0.114013	0.474482	0.63049	0.293209	0.224233	0.378459	0.37589
2.7655	0.278654	0.31319	0.754052	0.790623	0.566952	0.739491	0.080978	0.811041	0.151276	0.112672	0.473647	0.625679	0.292807	0.224507	0.380525	0.375995
2.766	0.279233	0.313605	0.749579	0.788106	0.569709	0.734839	0.081966	0.812066	0.151557	0.111339	0.47276	0.620818	0.292404	0.224764	0.382651	0.376103
2.7665	0.27981	0.313998	0.745037	0.785477	0.572464	0.730208	0.082973	0.813039	0.151856	0.110014	0.471819	0.615908	0.291998	0.225002	0.384837	0.376217
2.767	0.280383	0.314368	0.740427	0.782736	0.575214	0.7256	0.084002	0.813956	0.152173	0.108699	0.470826	0.610952	0.291589	0.225221	0.387083	0.376337
2.7675	0.280952	0.314715	0.735748	0.779882	0.57796	0.721014	0.08505	0.814817	0.152507	0.107393	0.46978	0.605952	0.291178	0.225422	0.389389	0.376463
2.768	0.281516	0.315041	0.731003	0.776918	0.580699	0.71645	0.086119	0.815622	0.152859	0.106096	0.468682	0.600911	0.290763	0.225603	0.391755	0.376596
2.7685	0.282075	0.315345	0.726192	0.773843	0.58343	0.71191	0.087207	0.816368	0.153229	0.10481	0.467532	0.59583	0.290345	0.225764	0.394179	0.376736
2.769	0.282629	0.315629	0.721316	0.770659	0.586151	0.707393	0.088315	0.817057	0.153617	0.103535	0.46633	0.590712	0.289924	0.225904	0.396663	0.376885
2.7695	0.283176	0.315893	0.716376	0.767366	0.58886	0.702898	0.089442	0.817687	0.154022	0.10227	0.465076	0.585559	0.2895	0.226023	0.399204	0.377043
2.77	0.283717	0.316137	0.711373	0.763967	0.591557	0.698427	0.090589	0.818258	0.154445	0.101017	0.46377	0.580372	0.289071	0.226122	0.401803	0.377211
2.7705	0.284251	0.316364	0.706308	0.760462	0.594237	0.693978	0.091754	0.81877	0.154886	0.099775	0.462414	0.575154	0.288639	0.226199	0.404459	0.377389
2.771	0.284777	0.316573	0.701183	0.756853	0.5969	0.689554	0.092937	0.819223	0.155345	0.098545	0.461008	0.569905	0.288202	0.226255	0.407171	0.377578
2.7715	0.285296	0.316765	0.695998	0.753139	0.599544	0.685153	0.094139	0.819616	0.155821	0.097327	0.459551	0.564629	0.287761	0.226289	0.409937	0.377779
2.772	0.285807	0.316941	0.690754	0.749322	0.602165	0.680777	0.095359	0.819948	0.156315	0.096122	0.458047	0.559326	0.287316	0.226302	0.412757	0.377993
2.7725	0.28631	0.317102	0.685453	0.745403	0.604761	0.676427	0.096596	0.820219	0.156826	0.094929	0.456495	0.553999	0.286865	0.226292	0.41563	0.37822
2.773	0.286805	0.317248	0.680094	0.741383	0.607329	0.672103	0.09785	0.820427	0.157354	0.093749	0.454898	0.548649	0.286409	0.226261	0.418554	0.37846
2.7735	0.287291	0.31738	0.67468	0.737261	0.609867	0.667806	0.099121	0.820572	0.157899	0.092582	0.453257	0.543277	0.285948	0.226208	0.421528	0.378715
2.774	0.287769	0.317497	0.669212	0.733039	0.612373	0.663537	0.100409	0.820652	0.158462	0.091428	0.451574	0.537885	0.28548	0.226132	0.424552	0.378983
2.7745	0.288238	0.317601	0.66369	0.728717	0.614842	0.659295	0.101713	0.820666	0.15904	0.090288	0.44985	0.532474	0.285007	0.226033	0.427622	0.379267
2.775	0.288697	0.317692	0.658115	0.724296	0.617274	0.655082	0.103032	0.820613	0.159636	0.089161	0.448089	0.527047	0.284526	0.225911	0.430739	0.379564
2.7755	0.289148	0.317771	0.652488	0.719778	0.619665	0.650898	0.104367	0.820491	0.160248	0.088048	0.446293	0.521604	0.284039	0.225765	0.433901	0.379876
2.776	0.289589	0.317837	0.64681	0.715162	0.622013	0.646743	0.105716	0.820301	0.160876	0.086949	0.444464	0.516147	0.283544	0.225596	0.437106	0.380203
2.7765	0.290022	0.317891	0.641082	0.71045	0.624318	0.642618	0.107079	0.820039	0.16152	0.085864	0.442605	0.510678	0.283042	0.225403	0.440352	0.380544
2.777	0.290445	0.317934	0.635303	0.705644	0.626577	0.638524	0.108457	0.819706	0.16218	0.084794	0.440718	0.505199	0.282531	0.225186	0.443638	0.380898
2.7775	0.290859	0.317967	0.629475	0.700744	0.628788	0.63446	0.109848	0.819301	0.162855	0.083738	0.438805	0.49971	0.282012	0.224945	0.446962	0.381267
2.778	0.291263	0.31799	0.623598	0.695752	0.630952	0.630427	0.111251	0.818821	0.163545	0.082697	0.43687	0.494212	0.281485	0.22468	0.450323	0.381649
2.7785	0.29166	0.318004	0.617672	0.69067	0.633067	0.626426	0.112668	0.818266	0.164249	0.081671	0.434916	0.488708	0.280948	0.224391	0.453717	0.382043
2.779	0.292048	0.31801	0.6117	0.685497	0.635131	0.622457	0.114096	0.817635	0.164968	0.08066	0.432944	0.483198	0.280401	0.224077	0.457143	0.382451
2.7795	0.292429	0.318009	0.605684	0.680236	0.637146	0.61852	0.115536	0.816926	0.165701	0.079664	0.430958	0.477684	0.279844	0.223738	0.460599	0.38287
2.78	0.292802	0.318003	0.599625	0.674889	0.639108	0.614616	0.116988	0.816138	0.166447	0.078683	0.42896	0.472167	0.279276	0.223374	0.464083	0.383301
2.7805	0.293169	0.317991	0.593525	0.669457	0.641018	0.610743	0.11845	0.81527	0.167206	0.077718	0.426952	0.466648	0.278696	0.222984	0.467591	0.383743
2.781	0.293529	0.317976	0.587388	0.663942	0.642875	0.606902	0.119924	0.81432	0.167977	0.076768	0.424937	0.461128	0.278103	0.222569	0.471122	0.384196
2.7815	0.293883	0.317958	0.581215	0.658348	0.644677	0.603092	0.121408	0.81329	0.16876	0.075833	0.422917	0.455609	0.277497	0.222129	0.474672	0.384659
2.782	0.294231	0.317939	0.575009	0.652674	0.646424	0.599313	0.122902	0.812177	0.169554	0.074914	0.420895	0.450092	0.276878	0.221663	0.47824	0.385132
2.7825	0.294575	0.31792	0.568772	0.646925	0.648114	0.595565	0.124405	0.810982	0.17036	0.07401	0.418871	0.444578	0.276243	0.221172	0.481823	0.385613
2.783	0.294913	0.317903	0.562508	0.6411	0.649746	0.591848	0.125919	0.809704	0.171175	0.073122	0.416849	0.439068	0.275593	0.220655	0.485417	0.386101
2.7835	0.295247	0.317889	0.556219	0.635203	0.651321	0.588161	0.127441	0.808344	0.172	0.072249	0.41483	0.433563	0.274928	0.220113	0.489021	0.386597
2.784	0.295576	0.317879	0.549907	0.629235	0.652836	0.584506	0.128972	0.806899	0.172834	0.071391	0.412816	0.428064	0.274245	0.219546	0.49263	0.387099
2.7845	0.295902	0.317876	0.543575	0.623199	0.654292	0.580881	0.130511	0.80537	0.173676	0.070549	0.41081	0.422574	0.273546	0.218953	0.496242	0.387606
2.785	0.296223	0.317882	0.537225	0.617097	0.655689	0.577288	0.132058	0.803757	0.174527	0.069723	0.408814	0.417094	0.272829	0.218334	0.499854	0.388116
2.7855	0.296541	0.317897	0.530859	0.610931	0.657026	0.573727	0.133613	0.802059	0.175384	0.068912	0.40683	0.411625	0.272094	0.21769	0.503463	0.38863
2.786	0.296854	0.317924	0.524479	0.604704	0.658304	0.570196	0.135175	0.800278	0.176249	0.068116	0.40486	0.406169	0.271341	0.21702	0.507065	0.389146
2.7865	0.297164	0.317964	0.518087	0.598419	0.659523	0.566697	0.136745	0.798414	0.177119	0.067335	0.402907	0.400727	0.270569	0.216324	0.510658	0.389662
2.787	0.29747	0.318018	0.511685	0.592077	0.660683	0.563228	0.138321	0.796468	0.177996	0.06657	0.400972	0.395301	0.269777	0.215602	0.514236	0.390177
2.7875	0.297772	0.318088	0.505275	0.585683	0.661786	0.55979	0.139904	0.794441	0.178877	0.065821	0.399057	0.389892	0.268965	0.214854	0.517798	0.39069
2.788	0.298071	0.318176	0.498859	0.579237	0.662831	0.556382	0.141493	0.792332	0.179763	0.065086	0.397165	0.3845	0.268133	0.214079	0.52134	0.3912
2.7885	0.298366	0.318282	0.492438	0.572743	0.663819	0.553005	0.143089	0.790144	0.180653	0.064366	0.395297	0.379128	0.267281	0.213278	0.524857	0.391705
2.789	0.298659	0.318407	0.486014	0.566202	0.664752	0.54966	0.14469	0.787875	0.181546	0.063662	0.393455	0.373776	0.266407	0.212451	0.528346	0.392203
2.7895	0.298948	0.318554	0.479589	0.559619	0.66563	0.546349	0.146296	0.785526	0.182441	0.062973	0.39164	0.368444	0.265513	0.211597	0.531805	0.392694
2.79	0.299235	0.318723	0.473164	0.552995	0.666453	0.543072	0.147908	0.783098	0.183339	0.062298	0.389856	0.363134	0.264598	0.210718	0.535228	0.393177
2.7905	0.299521	0.318915	0.466743	0.546335	0.667222	0.539832	0.149524	0.780589	0.184238	0.061639	0.388102	0.357846	0.263664	0.209814	0.538614	0.393649
2.791	0.299804	0.319132	0.460325	0.539641	0.667937	0.536629	0.151144	0.778001	0.185138	0.060994	0.38638	0.352581	0.262709	0.208883	0.54196	0.394111
2.7915	0.300087	0.319373	0.453913	0.532917	0.6686	0.533466	0.152768	0.775335	0.186039	0.060364	0.384693	0.347338	0.261734	0.207928	0.545262	0.394562
