datacolumns 17
datarows 132
time	addmag_r	bicfemlh_r	gaslat_r	gasmed_r	gmax_r	gmed_r	gra_r	perlong_r	recfem_r	sar_r	semimem_r	sol_r	tfl_r	tibant_r	vaslat_r	vasmed_r
2.528 0.120817 0.089948 0.006046 0.006923 0.015999 0.084841 0.033627 0.009566 0.002709 0.028944 0.130462 0.00345 0.015118 0.085013 0.004619 0.004042
2.532 0.113051 0.087825 0.005824 0.006418 0.016163 0.086521 0.032194 0.009005 0.002656 0.024149 0.123474 0.003313 0.014053 0.078693 0.0044 0.003724
2.536 0.104816 0.084763 0.005618 0.005873 0.016288 0.08869 0.030842 0.008483 0.00262 0.020121 0.115483 0.003154 0.013128 0.072483 0.004161 0.003423
2.54 0.09612 0.080772 0.005429 0.005287 0.016359 0.091365 0.02948 0.008005 0.0026 0.016773 0.10668 0.002963 0.012399 0.066329 0.003907 0.00314
2.544 0.087111 0.075961 0.005255 0.004659 0.016367 0.094527 0.028066 0.00758 0.002595 0.014037 0.097315 0.00273 0.011909 0.060253 0.003646 0.002874
2.548 0.078024 0.070536 0.005094 0.003991 0.016306 0.098117 0.02659 0.007215 0.002603 0.011857 0.087649 0.002448 0.011693 0.054331 0.003387 0.00263
2.552 0.069053 0.064717 0.004938 0.003285 0.016173 0.102035 0.025047 0.006914 0.002621 0.01019 0.077917 0.002114 0.011772 0.04868 0.003139 0.002407
2.556 0.060333 0.058749 0.004783 0.002544 0.015962 0.106183 0.023452 0.00668 0.002647 0.008983 0.068338 0.00173 0.012155 0.043402 0.002909 0.002207
2.56 0.051987 0.052912 0.004625 0.001768 0.015678 0.1105 0.021808 0.006512 0.002677 0.008175 0.059138 0.0013 0.012845 0.038573 0.002702 0.002032
2.564 0.044122 0.047459 0.004462 0.000958 0.015332 0.11505 0.02011 0.006408 0.00271 0.007701 0.050536 0.000828 0.013843 0.034239 0.002524 0.001882
2.568 0.036832 0.042585 0.00429 0.000112 0.014953 0.11999 0.018352 0.006371 0.002744 0.007501 0.042699 0.00032 0.015147 0.030406 0.002379 0.001754
2.572 0.030179 0.038431 0.004112 0.0 0.014578 0.125516 0.016527 0.00641 0.002776 0.00752 0.035742 0.0 0.016748 0.027052 0.002268 0.001648
2.576 0.024199 0.035093 0.003928 0.0 0.014239 0.131793 0.014651 0.006531 0.002804 0.007709 0.02973 0.0 0.018622 0.024128 0.002195 0.001563
2.58 0.018913 0.032626 0.003739 0.0 0.013965 0.138905 0.012749 0.006747 0.002827 0.008022 0.024706 0.0 0.020725 0.021561 0.002161 0.001498
2.584 0.014355 0.031052 0.003541 0.0 0.013776 0.146938 0.010851 0.007073 0.002845 0.00841 0.020732 0.0 0.022997 0.019272 0.002168 0.001454
2.588 0.010569 0.030373 0.003336 0.0 0.013682 0.155957 0.00899 0.007533 0.002862 0.008816 0.017911 0.0 0.025359 0.017201 0.002219 0.00143
2.592 0.007603 0.030561 0.003123 0.0 0.013685 0.16599 0.007193 0.008157 0.002885 0.009181 0.016357 0.0 0.027715 0.01532 0.002318 0.001429
2.596 0.005501 0.031556 0.002904 0.0 0.01378 0.176984 0.005491 0.00898 0.002922 0.009452 0.016173 0.0 0.029964 0.013632 0.002467 0.001448
2.6 0.004313 0.033265 0.002683 0.0 0.013963 0.188773 0.00392 0.010032 0.002978 0.009592 0.017441 0.0 0.032005 0.012135 0.002669 0.00149
2.604 0.004093 0.035561 0.002462 0.0 0.014239 0.201049 0.002515 0.011339 0.003057 0.00959 0.020233 0.0 0.033747 0.01083 0.002922 0.001553
2.608 0.004899 0.038301 0.002249 0.0 0.01461 0.213463 0.001312 0.012928 0.00316 0.009452 0.024625 0.0 0.035121 0.009722 0.003227 0.001636
2.612 0.006797 0.041345 0.002058 0.0 0.015082 0.225743 0.000345 0.014834 0.003288 0.009199 0.030739 0.000595 0.036134 0.008818 0.003579 0.001737
2.616 0.009866 0.044598 0.001907 0.0 0.015664 0.237721 0.0 0.017095 0.003442 0.008861 0.038729 0.002495 0.03683 0.008134 0.003976 0.001853
2.62 0.014186 0.048 0.001817 0.00051 0.016366 0.24934 0.0 0.019737 0.003619 0.00847 0.048731 0.005022 0.037245 0.007679 0.004412 0.001979
2.624 0.01984 0.05153 0.001808 0.0041 0.017193 0.260402 0.0 0.022771 0.003816 0.008057 0.060849 0.008262 0.037391 0.007461 0.004884 0.002109
2.628 0.026918 0.055267 0.001908 0.008794 0.018147 0.270511 0.0 0.026196 0.004032 0.007652 0.075166 0.012296 0.037254 0.007486 0.005383 0.002237
2.632 0.035495 0.059416 0.002151 0.014753 0.019228 0.279016 0.000468 0.029994 0.004262 0.007274 0.091732 0.0172 0.036811 0.007769 0.005902 0.002355
2.636 0.045625 0.064274 0.002581 0.02216 0.020423 0.285023 0.001825 0.034143 0.004502 0.006942 0.11053 0.023043 0.036049 0.00834 0.006431 0.002455
2.64 0.057341 0.070096 0.003252 0.031205 0.021703 0.287713 0.003781 0.038629 0.004745 0.006666 0.131443 0.029877 0.034969 0.00924 0.006956 0.002529
2.644 0.070646 0.077087 0.004213 0.042054 0.023032 0.286692 0.006434 0.043418 0.004984 0.00645 0.154247 0.03773 0.033586 0.010514 0.007464 0.002567
2.648 0.085504 0.085387 0.005514 0.054841 0.024385 0.28217 0.009893 0.048455 0.005213 0.006298 0.178602 0.046591 0.031952 0.012228 0.007949 0.002557
2.652 0.101837 0.095064 0.007204 0.069666 0.025744 0.274726 0.014273 0.053642 0.005427 0.00621 0.204118 0.056414 0.03014 0.014459 0.008411 0.002487
2.656 0.119539 0.106124 0.009328 0.08658 0.027089 0.264931 0.01969 0.058844 0.00562 0.006185 0.230478 0.067103 0.028215 0.017284 0.008858 0.002351
2.66 0.138498 0.118509 0.011927 0.105607 0.028409 0.253199 0.026244 0.063918 0.005784 0.00622 0.257436 0.078503 0.026211 0.020779 0.009301 0.002144
2.664 0.158619 0.132136 0.015034 0.126782 0.029693 0.239718 0.034024 0.068689 0.005913 0.006313 0.284774 0.090396 0.024148 0.025017 0.009766 0.001873
2.668 0.179845 0.146892 0.01868 0.150131 0.030936 0.224533 0.043106 0.072967 0.006006 0.00647 0.312402 0.102505 0.022056 0.030061 0.010286 0.001554
2.672 0.202178 0.162587 0.022895 0.175606 0.032144 0.207637 0.05355 0.076642 0.006061 0.006703 0.340269 0.114462 0.019969 0.035965 0.010895 0.001212
2.676 0.225645 0.178978 0.027706 0.203078 0.033314 0.189249 0.065377 0.079648 0.006084 0.007017 0.368157 0.125845 0.017927 0.042768 0.011632 0.000888
2.68 0.250301 0.195809 0.033137 0.232283 0.034456 0.169852 0.078553 0.081945 0.006081 0.007419 0.395715 0.136221 0.015962 0.050507 0.012535 0.00063
2.684 0.276173 0.212852 0.039201 0.262893 0.035586 0.150143 0.092993 0.083548 0.006062 0.007916 0.422592 0.145185 0.014102 0.059228 0.013643 0.000495
2.688 0.303174 0.229868 0.045908 0.294587 0.036705 0.130757 0.108547 0.084549 0.006031 0.008511 0.448478 0.152578 0.012377 0.069018 0.014984 0.000542
2.692 0.331034 0.246497 0.053287 0.327063 0.037829 0.112223 0.124985 0.085079 0.005992 0.009201 0.472972 0.158596 0.010808 0.079975 0.016578 0.000833
2.696 0.359176 0.262374 0.061367 0.360047 0.038997 0.094945 0.142019 0.085298 0.005944 0.009977 0.495392 0.16362 0.009412 0.092161 0.018434 0.001436
2.7 0.386736 0.277217 0.070151 0.393095 0.040243 0.079214 0.159266 0.085437 0.005883 0.01082 0.514842 0.167978 0.008197 0.10556 0.020556 0.002428
2.704 0.412758 0.290693 0.079608 0.425518 0.041644 0.065234 0.176264 0.085745 0.005808 0.011705 0.530297 0.171922 0.007168 0.120078 0.022956 0.003893
2.708 0.436311 0.30234 0.089676 0.456425 0.04329 0.053146 0.192502 0.086424 0.005713 0.012593 0.541025 0.175564 0.006322 0.135543 0.025665 0.005918
2.712 0.456734 0.311611 0.100286 0.484783 0.045289 0.043058 0.207385 0.08762 0.005598 0.013452 0.546877 0.178903 0.005651 0.151716 0.028738 0.008593
2.716 0.473579 0.318165 0.11137 0.509852 0.047744 0.035102 0.220415 0.089428 0.005475 0.014249 0.547904 0.181943 0.00515 0.168362 0.032224 0.012016
2.72 0.486823 0.321875 0.12286 0.531424 0.050732 0.029408 0.231177 0.091882 0.005361 0.014958 0.544347 0.18459 0.004819 0.185261 0.036167 0.016283
2.724 0.496859 0.322916 0.134686 0.549414 0.054308 0.02609 0.239428 0.094934 0.005285 0.015577 0.536896 0.186707 0.004661 0.202116 0.040639 0.02149
2.728 0.504398 0.321443 0.146842 0.563853 0.058493 0.025258 0.245088 0.098497 0.005289 0.016126 0.526578 0.188142 0.004687 0.218638 0.04578 0.027746
2.732 0.509988 0.317412 0.159297 0.574758 0.063271 0.027013 0.248102 0.102489 0.005424 0.016632 0.514223 0.188812 0.004916 0.234571 0.051783 0.035185
2.736 0.513901 0.310749 0.171922 0.582118 0.068581 0.031448 0.248582 0.106811 0.005751 0.017147 0.500652 0.188669 0.005368 0.249629 0.058892 0.043957
2.74 0.516103 0.301601 0.184481 0.585956 0.074359 0.038644 0.246717 0.111367 0.006337 0.017758 0.486547 0.187641 0.006076 0.263429 0.067318 0.054219
2.744 0.516317 0.290178 0.196705 0.586235 0.080545 0.04866 0.242811 0.116066 0.007257 0.018583 0.472217 0.185689 0.00707 0.275589 0.077221 0.066148
2.748 0.514143 0.276803 0.208432 0.583152 0.087077 0.061526 0.237196 0.120941 0.008591 0.01979 0.457544 0.182995 0.008384 0.285872 0.088745 0.079959
2.752 0.50914 0.261891 0.219584 0.577113 0.093872 0.077221 0.23026 0.126113 0.010433 0.021569 0.442213 0.179979 0.010058 0.294311 0.101984 0.095861
2.756 0.500902 0.245758 0.230011 0.568507 0.100873 0.095661 0.222379 0.13172 0.012875 0.024161 0.426112 0.177057 0.01213 0.300953 0.116972 0.114022
2.76 0.489209 0.228588 0.239567 0.557596 0.108051 0.116689 0.213909 0.137923 0.016007 0.02783 0.409234 0.174465 0.014641 0.305685 0.133689 0.134542
2.764 0.474236 0.210639 0.248244 0.544313 0.115419 0.140074 0.205241 0.144939 0.019919 0.032863 0.391704 0.172302 0.017631 0.308273 0.152038 0.157443
2.768 0.456388 0.19226 0.256076 0.5284 0.123012 0.165484 0.196658 0.153005 0.024687 0.039582 0.373645 0.170725 0.021137 0.308461 0.171899 0.182634
2.772 0.436171 0.173909 0.262945 0.509546 0.130862 0.192536 0.1884 0.16227 0.030379 0.048312 0.355121 0.169911 0.025183 0.305973 0.193266 0.20993
2.776 0.414101 0.156035 0.268678 0.48775 0.139066 0.220807 0.180685 0.172786 0.037063 0.059369 0.336235 0.170088 0.029769 0.300795 0.216157 0.239042
2.78 0.390742 0.139019 0.27309 0.463631 0.147781 0.249842 0.17359 0.184619 0.044788 0.073068 0.317469 0.171486 0.034878 0.293134 0.240557 0.269534
2.784 0.366898 0.123169 0.276184 0.437986 0.157094 0.279346 0.167184 0.197877 0.053589 0.089696 0.299492 0.174218 0.040463 0.283402 0.266322 0.300894
2.788 0.343528 0.108757 0.278056 0.411567 0.167171 0.309203 0.161514 0.212644 0.063482 0.109492 0.282952 0.178453 0.046448 0.272154 0.293254 0.332667
2.792 0.321589 0.095962 0.279034 0.385112 0.178205 0.339339 0.156589 0.22888 0.074478 0.132609 0.268406 0.184485 0.052722 0.259962 0.321074 0.364336
2.796 0.30195 0.08488 0.279687 0.35948 0.190297 0.369739 0.152381 0.246428 0.086603 0.159096 0.256268 0.192642 0.059133 0.247264 0.349291 0.395303
2.8 0.285192 0.075551 0.280609 0.335709 0.203479 0.400188 0.148793 0.265021 0.099869 0.188863 0.246782 0.203149 0.065495 0.234432 0.3774 0.425147
2.804 0.271714 0.067984 0.282583 0.314761 0.217718 0.430124 0.145797 0.284194 0.114249 0.221662 0.239975 0.216106 0.071606 0.221848 0.404882 0.453704
2.808 0.261676 0.062139 0.286384 0.297332 0.232946 0.45889 0.143416 0.303577 0.129702 0.257055 0.235768 0.231537 0.077323 0.209883 0.431325 0.480745
2.812 0.255032 0.057924 0.292706 0.283865 0.249012 0.485859 0.141671 0.323021 0.14615 0.294395 0.234068 0.249347 0.082565 0.198802 0.456355 0.506075
2.816 0.251712 0.05523 0.302035 0.274548 0.26571 0.51066 0.140576 0.342514 0.163452 0.332856 0.234685 0.269325 0.087378 0.188681 0.479713 0.529252
2.82 0.251627 0.053924 0.314608 0.269345 0.283003 0.533373 0.140077 0.36194 0.181382 0.371463 0.237395 0.291192 0.091939 0.179515 0.501273 0.549698
2.824 0.254706 0.053832 0.330548 0.268032 0.300988 0.554276 0.14002 0.380979 0.199628 0.409133 0.242044 0.314632 0.096462 0.171269 0.520986 0.567208
2.828 0.260761 0.054767 0.349944 0.270288 0.31958 0.573674 0.140188 0.399317 0.217915 0.444542 0.248425 0.339326 0.101123 0.163811 0.538662 0.581671
2.832 0.269368 0.05653 0.372702 0.27568 0.338676 0.591685 0.14031 0.416556 0.235965 0.476345 0.256189 0.365033 0.10606 0.156948 0.554082 0.593049
2.836 0.279877 0.058945 0.398637 0.283724 0.358221 0.608084 0.140084 0.432059 0.25356 0.503483 0.264994 0.391488 0.11138 0.150457 0.566815 0.601199
2.84 0.291477 0.061896 0.427564 0.294071 0.378146 0.622384 0.139183 0.445026 0.270505 0.525011 0.274527 0.418271 0.117204 0.14413 0.576312 0.606112
2.844 0.303374 0.065294 0.459204 0.306599 0.398377 0.63402 0.137306 0.455006 0.286584 0.54053 0.284375 0.444844 0.123719 0.137828 0.582049 0.608421
2.848 0.314773 0.069093 0.493161 0.321203 0.41875 0.642555 0.134324 0.462246 0.301517 0.549989 0.293961 0.470592 0.131135 0.131578 0.583642 0.608891
2.852 0.324659 0.073232 0.529003 0.337876 0.439131 0.6479 0.130293 0.467802 0.314998 0.553338 0.302482 0.494882 0.139628 0.125518 0.581141 0.608034
2.856 0.331967 0.077666 0.566257 0.35665 0.45952 0.650326 0.125455 0.472896 0.32689 0.550976 0.309071 0.51734 0.149301 0.119815 0.575002 0.606243
2.86 0.336327 0.082479 0.604609 0.377487 0.479907 0.65031 0.120111 0.478916 0.337065 0.543418 0.313532 0.538024 0.160135 0.114711 0.565946 0.603839
2.864 0.33805 0.087912 0.643596 0.400513 0.500143 0.648072 0.114615 0.487206 0.345372 0.531146 0.316548 0.557098 0.171963 0.110447 0.554474 0.600798
2.868 0.337903 0.094252 0.682463 0.425909 0.519854 0.643544 0.109259 0.498674 0.351531 0.515075 0.31902 0.574905 0.184464 0.107168 0.541038 0.596793
2.872 0.336668 0.101733 0.720399 0.453657 0.538163 0.636505 0.104265 0.513783 0.355088 0.496056 0.321595 0.591763 0.197172 0.104925 0.525881 0.591371
2.876 0.334967 0.110499 0.756922 0.483353 0.553742 0.626978 0.099825 0.532602 0.355571 0.474718 0.32465 0.607828 0.209541 0.10369 0.509119 0.583986
2.88 0.333208 0.120621 0.791865 0.51419 0.565469 0.615264 0.09608 0.554845 0.352589 0.451303 0.328277 0.623017 0.22091 0.103451 0.490695 0.574178
2.884 0.331568 0.132108 0.825534 0.545242 0.573013 0.601982 0.0931 0.579819 0.345946 0.425794 0.332236 0.637182 0.230646 0.104205 0.470631 0.561744
2.888 0.329897 0.144909 0.858145 0.575909 0.576605 0.587783 0.090921 0.606583 0.335671 0.398035 0.335932 0.649965 0.238269 0.105919 0.449108 0.546315
2.892 0.327772 0.158874 0.889749 0.60575 0.577105 0.572942 0.089546 0.634274 0.321783 0.368093 0.338499 0.66114 0.243471 0.108485 0.426534 0.527781
2.896 0.32463 0.173764 0.919772 0.634225 0.575282 0.557602 0.088966 0.661951 0.30441 0.336418 0.338963 0.670459 0.246308 0.111765 0.40339 0.506363
2.9 0.319925 0.189219 0.946792 0.66076 0.571793 0.541984 0.089325 0.688637 0.284103 0.303688 0.336326 0.677259 0.247057 0.115634 0.380213 0.482471
2.904 0.313323 0.204757 0.968735 0.684596 0.56739 0.526369 0.090813 0.713688 0.261739 0.270888 0.329734 0.680549 0.246264 0.11997 0.357595 0.456882
2.908 0.30489 0.219959 0.983273 0.704705 0.562745 0.510824 0.093669 0.736788 0.238371 0.238858 0.318954 0.67977 0.244524 0.124625 0.335916 0.430524
2.912 0.295122 0.234738 0.988983 0.719772 0.55846 0.495227 0.098139 0.757803 0.214865 0.208316 0.304523 0.67485 0.242488 0.12949 0.315314 0.404315
2.916 0.284713 0.249093 0.985841 0.728653 0.555071 0.479264 0.104452 0.776411 0.191965 0.179869 0.287445 0.665888 0.240766 0.134472 0.295948 0.378962
2.92 0.274442 0.262865 0.974481 0.730456 0.552998 0.46283 0.112855 0.792257 0.170283 0.153951 0.26879 0.65317 0.239889 0.139435 0.277933 0.354876
2.924 0.265012 0.275815 0.955263 0.72485 0.55262 0.446171 0.123575 0.805164 0.150261 0.13083 0.249503 0.636772 0.240265 0.1442 0.261329 0.332127
2.928 0.256959 0.287647 0.928229 0.712423 0.554147 0.429383 0.136746 0.814977 0.132195 0.110648 0.23035 0.616634 0.242197 0.148591 0.246161 0.310576
2.932 0.250657 0.297839 0.893125 0.69398 0.557737 0.412361 0.152402 0.82156 0.116287 0.09344 0.211856 0.592735 0.245869 0.152561 0.232377 0.290191
2.936 0.246426 0.305688 0.84959 0.670156 0.563205 0.39516 0.170502 0.824858 0.102685 0.079172 0.194333 0.565007 0.251256 0.156138 0.219947 0.27101
2.94 0.244476 0.310769 0.797845 0.641616 0.570144 0.378217 0.190941 0.824759 0.091483 0.067747 0.177982 0.533833 0.258217 0.159318 0.208888 0.253202
2.944 0.24491 0.313037 0.739308 0.608909 0.578077 0.362572 0.213474 0.821316 0.082722 0.059018 0.163017 0.499836 0.26651 0.162072 0.199352 0.237173
2.948 0.247729 0.312756 0.676356 0.572504 0.586541 0.349299 0.237702 0.814497 0.07638 0.052775 0.149704 0.463616 0.275825 0.164386 0.191752 0.223276
2.952 0.252763 0.310452 0.611462 0.532801 0.595011 0.339267 0.263048 0.804151 0.072343 0.048772 0.13843 0.425637 0.285758 0.166224 0.186514 0.211744
2.956 0.259713 0.306768 0.546616 0.490277 0.602864 0.333208 0.288721 0.790229 0.070436 0.046716 0.129578 0.386339 0.295853 0.167588 0.183956 0.202634
2.96 0.268125 0.302499 0.483233 0.445686 0.609445 0.331639 0.313695 0.772907 0.07047 0.046291 0.123394 0.346397 0.305533 0.168614 0.184323 0.19599
2.964 0.277459 0.298259 0.422279 0.399838 0.61438 0.334734 0.336864 0.75226 0.07226 0.047171 0.120016 0.306656 0.314266 0.169442 0.187827 0.19192
2.968 0.287107 0.294442 0.36438 0.353725 0.617466 0.342398 0.357137 0.728488 0.075578 0.049017 0.119568 0.267981 0.321475 0.170199 0.194554 0.190544
2.972 0.296574 0.291248 0.310096 0.308514 0.618725 0.354365 0.373393 0.701676 0.080128 0.051503 0.122176 0.231085 0.326316 0.171064 0.204525 0.19195
2.976 0.305521 0.288644 0.260012 0.265236 0.61789 0.370192 0.384985 0.671981 0.085554 0.054381 0.12787 0.196479 0.32807 0.172175 0.217763 0.196035
2.98 0.313535 0.286388 0.214588 0.224691 0.614619 0.389267 0.391684 0.639819 0.09146 0.057415 0.136576 0.164561 0.32641 0.173629 0.234194 0.20249
2.984 0.320339 0.284145 0.174074 0.187439 0.608716 0.410797 0.393736 0.605699 0.097466 0.060425 0.14813 0.135613 0.321313 0.175443 0.253572 0.210813
2.988 0.325937 0.281607 0.138551 0.153819 0.59992 0.433894 0.391778 0.570125 0.10329 0.063321 0.162354 0.109792 0.313168 0.177538 0.275524 0.220437
2.992 0.330433 0.278759 0.107912 0.123962 0.58817 0.457615 0.386404 0.533525 0.108789 0.066021 0.179029 0.087171 0.302378 0.179792 0.299549 0.230788
2.996 0.334092 0.275937 0.081912 0.097832 0.573863 0.481026 0.377969 0.496103 0.11388 0.06842 0.197946 0.067716 0.289209 0.18196 0.32499 0.24129
3.0 0.33717 0.273709 0.060215 0.075267 0.557708 0.503465 0.366681 0.457986 0.118472 0.070413 0.218936 0.051293 0.273954 0.18371 0.351104 0.251487
3.004 0.339823 0.272782 0.042433 0.056048 0.540582 0.524539 0.353155 0.419305 0.122557 0.071919 0.241807 0.037694 0.257028 0.184685 0.37707 0.260997
3.008 0.342236 0.273798 0.028153 0.039958 0.522977 0.543832 0.338213 0.380036 0.126206 0.0729 0.266261 0.026675 0.238708 0.184571 0.401847 0.269504
3.012 0.344629 0.277196 0.016952 0.026765 0.50515 0.560945 0.322843 0.340236 0.129495 0.073392 0.291757 0.017969 0.219311 0.183235 0.424105 0.276587
3.016 0.347178 0.283142 0.008438 0.016225 0.48749 0.575458 0.307933 0.300501 0.132522 0.073487 0.31748 0.0113 0.199291 0.180824 0.442608 0.281701
3.02 0.349996 0.291556 0.00224 0.008073 0.470187 0.587143 0.294061 0.261836 0.135335 0.073295 0.342368 0.006374 0.179204 0.177611 0.456852 0.284416
3.024 0.353002 0.302183 0.0 0.002027 0.453495 0.596025 0.281475 0.225131 0.13791 0.072892 0.365356 0.002904 0.159608 0.17376 0.467123 0.284597
3.028 0.355926 0.314642 0.0 0.0 0.437811 0.60199 0.270142 0.190999 0.140142 0.072337 0.385731 0.000615 0.140908 0.169412 0.473796 0.282283
3.032 0.358459 0.328382 0.0 0.0 0.423521 0.604544 0.26005 0.159802 0.141852 0.071706 0.403175 0.0 0.123377 0.164618 0.477167 0.277627
3.036 0.360311 0.342792 0.0 0.0 0.41079 0.602973 0.25117 0.131712 0.142848 0.071062 0.41741 0.0 0.1072 0.159343 0.477308 0.271057
3.04 0.361069 0.357143 0.0 0.0 0.399558 0.59658 0.243387 0.106755 0.143037 0.070454 0.428061 0.0 0.092514 0.153473 0.474078 0.263155
3.044 0.360204 0.370651 0.0 0.0 0.389564 0.585288 0.236662 0.084858 0.142433 0.069892 0.434894 0.0 0.079406 0.14679 0.467368 0.254538
3.048 0.357511 0.382688 0.0 0.0 0.380647 0.570053 0.231047 0.06587 0.141029 0.069337 0.438066 0.000106 0.067926 0.139037 0.457083 0.245665
3.052 0.353315 0.393051 0.0 0.0 0.37269 0.552159 0.22658 0.049592 0.138813 0.068729 0.438302 0.001168 0.05807 0.130055 0.443041 0.236841
