datacolumns 17
datarows 931
time	addmag_r	bicfemlh_r	gaslat_r	gasmed_r	gmax_r	gmed_r	gra_r	perlong_r	recfem_r	sar_r	semimem_r	sol_r	tfl_r	tibant_r	vaslat_r	vasmed_r
3.034	0.152343	0.024246	0.016006	0.023972	0.019559	0.028893	0.158743	0.033494	0.015857	0.02939	0.057512	0.009944	0.062459	0.207148	0.003984	0.003505
3.0345	0.151636	0.024443	0.01592	0.023775	0.019595	0.028807	0.157466	0.033361	0.015597	0.028948	0.058067	0.009922	0.061153	0.206114	0.003948	0.003482
3.035	0.150935	0.024644	0.015833	0.023575	0.019636	0.028722	0.156221	0.033224	0.015342	0.028517	0.058625	0.009899	0.059863	0.205071	0.003912	0.003459
3.0355	0.150238	0.024848	0.015745	0.023371	0.019685	0.028637	0.155009	0.033084	0.015091	0.028097	0.059186	0.009875	0.058591	0.204017	0.003877	0.003436
3.036	0.149545	0.025057	0.015655	0.023165	0.019739	0.028553	0.153828	0.032941	0.014844	0.027687	0.059748	0.009851	0.057334	0.202953	0.003842	0.003413
3.0365	0.148857	0.025268	0.015565	0.022957	0.0198	0.02847	0.152679	0.032795	0.014601	0.027288	0.060311	0.009826	0.056094	0.201878	0.003808	0.003391
3.037	0.148172	0.025483	0.015473	0.022745	0.019868	0.028388	0.151561	0.032646	0.014363	0.026899	0.060876	0.009799	0.054871	0.200791	0.003773	0.003369
3.0375	0.147492	0.025702	0.01538	0.022532	0.019942	0.028307	0.150474	0.032494	0.014129	0.02652	0.061441	0.009772	0.053665	0.199692	0.00374	0.003348
3.038	0.146815	0.025923	0.015285	0.022316	0.020022	0.028227	0.149417	0.032339	0.0139	0.026152	0.062005	0.009745	0.052475	0.19858	0.003706	0.003327
3.0385	0.146141	0.026148	0.01519	0.022098	0.020109	0.028149	0.14839	0.032181	0.013674	0.025793	0.062569	0.009716	0.051302	0.197457	0.003673	0.003306
3.039	0.14547	0.026375	0.015094	0.021878	0.020203	0.028071	0.147392	0.03202	0.013453	0.025444	0.063133	0.009687	0.050145	0.19632	0.00364	0.003286
3.0395	0.144802	0.026606	0.014996	0.021656	0.020303	0.027996	0.146423	0.031857	0.013236	0.025105	0.063694	0.009656	0.049006	0.195171	0.003608	0.003265
3.04	0.144136	0.026838	0.014898	0.021432	0.020409	0.027921	0.145483	0.031691	0.013024	0.024775	0.064254	0.009625	0.047883	0.19401	0.003575	0.003246
3.0405	0.143473	0.027074	0.014799	0.021206	0.020523	0.027848	0.14457	0.031522	0.012815	0.024455	0.064811	0.009593	0.046776	0.192837	0.003544	0.003226
3.041	0.142812	0.027311	0.014698	0.020979	0.020643	0.027777	0.143686	0.031351	0.012611	0.024144	0.065364	0.00956	0.045687	0.191651	0.003512	0.003207
3.0415	0.142152	0.027551	0.014597	0.020751	0.020769	0.027707	0.142828	0.031176	0.012411	0.023842	0.065914	0.009527	0.044613	0.190454	0.003481	0.003189
3.042	0.141494	0.027793	0.014495	0.020521	0.020902	0.02764	0.141997	0.031	0.012215	0.023549	0.066459	0.009492	0.043557	0.189245	0.003451	0.00317
3.0425	0.140837	0.028037	0.014393	0.02029	0.021042	0.027573	0.141191	0.030821	0.012023	0.023264	0.067	0.009457	0.042517	0.188026	0.00342	0.003152
3.043	0.140181	0.028283	0.014289	0.020058	0.021188	0.027509	0.140411	0.030639	0.011836	0.022988	0.067534	0.009421	0.041493	0.186796	0.00339	0.003135
3.0435	0.139527	0.02853	0.014185	0.019825	0.021341	0.027447	0.139656	0.030455	0.011652	0.022721	0.068063	0.009384	0.040486	0.185557	0.003361	0.003117
3.044	0.138873	0.028779	0.01408	0.019591	0.0215	0.027386	0.138925	0.030268	0.011473	0.022461	0.068584	0.009347	0.039495	0.184308	0.003331	0.0031
3.0445	0.13822	0.029029	0.013975	0.019356	0.021666	0.027328	0.138218	0.03008	0.011297	0.02221	0.069098	0.009309	0.038521	0.183051	0.003303	0.003084
3.045	0.137568	0.02928	0.01387	0.019121	0.021839	0.027272	0.137535	0.029889	0.011126	0.021966	0.069603	0.00927	0.037562	0.181785	0.003274	0.003067
3.0455	0.136917	0.029532	0.013764	0.018885	0.022017	0.027218	0.136874	0.029696	0.010959	0.02173	0.070099	0.00923	0.03662	0.180513	0.003246	0.003051
3.046	0.136267	0.029785	0.013657	0.018648	0.022202	0.027167	0.136236	0.029501	0.010795	0.021502	0.070586	0.00919	0.035694	0.179233	0.003218	0.003036
3.0465	0.135618	0.030038	0.01355	0.018411	0.022394	0.027118	0.135619	0.029304	0.010636	0.021281	0.071063	0.009149	0.034784	0.177948	0.00319	0.003021
3.047	0.13497	0.030292	0.013443	0.018173	0.022592	0.027071	0.135024	0.029105	0.01048	0.021067	0.071528	0.009108	0.033889	0.176657	0.003163	0.003006
3.0475	0.134324	0.030546	0.013336	0.017936	0.022796	0.027028	0.134449	0.028905	0.010329	0.02086	0.071982	0.009066	0.033011	0.175362	0.003136	0.002991
3.048	0.133678	0.030799	0.013229	0.017698	0.023006	0.026986	0.133894	0.028703	0.010181	0.02066	0.072424	0.009023	0.032148	0.174062	0.003109	0.002977
3.0485	0.133034	0.031052	0.013121	0.01746	0.023223	0.026948	0.133359	0.028499	0.010037	0.020466	0.072853	0.00898	0.0313	0.172759	0.003083	0.002963
3.049	0.132391	0.031305	0.013014	0.017222	0.023446	0.026912	0.132843	0.028294	0.009896	0.020279	0.073269	0.008936	0.030468	0.171453	0.003057	0.002949
3.0495	0.131749	0.031557	0.012906	0.016984	0.023675	0.026879	0.132345	0.028088	0.00976	0.020098	0.073671	0.008892	0.029651	0.170145	0.003032	0.002935
3.05	0.131109	0.031807	0.012799	0.016747	0.023909	0.02685	0.131864	0.027881	0.009627	0.019923	0.074059	0.008848	0.028849	0.168836	0.003006	0.002922
3.0505	0.13047	0.032057	0.012691	0.01651	0.02415	0.026823	0.1314	0.027673	0.009498	0.019754	0.074432	0.008802	0.028063	0.167526	0.002981	0.00291
3.051	0.129834	0.032305	0.012584	0.016273	0.024397	0.026799	0.130952	0.027465	0.009372	0.019591	0.07479	0.008757	0.027291	0.166217	0.002956	0.002897
3.0515	0.1292	0.032551	0.012477	0.016036	0.024649	0.026778	0.13052	0.027255	0.00925	0.019433	0.075133	0.008711	0.026534	0.164909	0.002932	0.002885
3.052	0.128569	0.032795	0.01237	0.0158	0.024908	0.026761	0.130103	0.027045	0.009132	0.01928	0.07546	0.008665	0.025791	0.163602	0.002908	0.002873
3.0525	0.12794	0.033037	0.012263	0.015565	0.025172	0.026747	0.1297	0.026835	0.009017	0.019133	0.07577	0.008618	0.025063	0.162299	0.002884	0.002861
3.053	0.127315	0.033277	0.012156	0.01533	0.025441	0.026736	0.129311	0.026625	0.008905	0.018991	0.076065	0.00857	0.024349	0.160999	0.00286	0.00285
3.0535	0.126692	0.033514	0.01205	0.015096	0.025716	0.026729	0.128934	0.026414	0.008797	0.018853	0.076343	0.008523	0.02365	0.159702	0.002837	0.002838
3.054	0.126072	0.033749	0.011944	0.014862	0.025996	0.026725	0.128569	0.026204	0.008691	0.018721	0.076605	0.008475	0.022965	0.158411	0.002814	0.002827
3.0545	0.125455	0.03398	0.011838	0.014629	0.026281	0.026725	0.128215	0.025994	0.00859	0.018593	0.07685	0.008426	0.022293	0.157124	0.002791	0.002817
3.055	0.124841	0.034209	0.011733	0.014398	0.026572	0.026728	0.127871	0.025785	0.008491	0.018469	0.077078	0.008378	0.021635	0.155844	0.002769	0.002806
3.0555	0.12423	0.034434	0.011628	0.014167	0.026867	0.026735	0.127536	0.025575	0.008395	0.018349	0.077289	0.008328	0.020991	0.15457	0.002747	0.002796
3.056	0.123623	0.034656	0.011523	0.013937	0.027167	0.026745	0.12721	0.025367	0.008303	0.018233	0.077483	0.008279	0.020361	0.153302	0.002725	0.002786
3.0565	0.123018	0.034875	0.011419	0.013708	0.027472	0.026759	0.126892	0.025159	0.008213	0.018121	0.07766	0.008229	0.019744	0.152043	0.002703	0.002776
3.057	0.122416	0.03509	0.011315	0.01348	0.027782	0.026777	0.12658	0.024952	0.008126	0.018012	0.07782	0.008178	0.019139	0.150791	0.002682	0.002766
3.0575	0.121816	0.0353	0.011212	0.013253	0.028096	0.026799	0.126274	0.024746	0.008042	0.017907	0.077962	0.008128	0.018548	0.149548	0.002661	0.002757
3.058	0.121219	0.035507	0.011109	0.013027	0.028414	0.026824	0.125972	0.024542	0.007961	0.017805	0.078087	0.008077	0.01797	0.148314	0.002641	0.002748
3.0585	0.120624	0.03571	0.011006	0.012803	0.028736	0.026853	0.125675	0.024338	0.007883	0.017706	0.078194	0.008025	0.017405	0.147088	0.002621	0.002739
3.059	0.120032	0.035909	0.010904	0.012579	0.029062	0.026885	0.125381	0.024135	0.007807	0.01761	0.078283	0.007973	0.016852	0.145873	0.002601	0.00273
3.0595	0.119441	0.036103	0.010802	0.012357	0.029392	0.026922	0.125089	0.023934	0.007733	0.017516	0.078354	0.007921	0.016311	0.144667	0.002581	0.002722
3.06	0.118852	0.036293	0.010701	0.012136	0.029726	0.026962	0.124798	0.023734	0.007662	0.017425	0.078407	0.007868	0.015783	0.143472	0.002562	0.002713
3.0605	0.118265	0.036479	0.0106	0.011916	0.030063	0.027007	0.124507	0.023536	0.007594	0.017337	0.078443	0.007815	0.015267	0.142287	0.002543	0.002705
3.061	0.117679	0.036661	0.0105	0.011698	0.030404	0.027054	0.124216	0.023339	0.007528	0.017251	0.078461	0.007761	0.014763	0.141113	0.002524	0.002697
3.0615	0.117094	0.036839	0.0104	0.011481	0.030748	0.027106	0.123923	0.023144	0.007464	0.017167	0.078462	0.007707	0.014271	0.139949	0.002506	0.002689
3.062	0.116509	0.037013	0.010301	0.011265	0.031095	0.027162	0.123628	0.02295	0.007402	0.017084	0.078446	0.007653	0.01379	0.138797	0.002488	0.002682
3.0625	0.115926	0.037183	0.010202	0.01105	0.031445	0.027221	0.12333	0.022758	0.007343	0.017004	0.078413	0.007598	0.01332	0.137656	0.002471	0.002675
3.063	0.115343	0.037349	0.010103	0.010837	0.031798	0.027284	0.123028	0.022568	0.007285	0.016925	0.078363	0.007543	0.012862	0.136526	0.002454	0.002668
3.0635	0.114761	0.037512	0.010005	0.010625	0.032153	0.02735	0.122722	0.022379	0.00723	0.016848	0.078296	0.007487	0.012415	0.135408	0.002437	0.002661
3.064	0.114179	0.037671	0.009907	0.010415	0.032511	0.02742	0.122411	0.022193	0.007176	0.016772	0.078211	0.007431	0.011979	0.134302	0.002421	0.002654
3.0645	0.113598	0.037827	0.00981	0.010205	0.032871	0.027494	0.122094	0.022008	0.007124	0.016698	0.078111	0.007374	0.011554	0.133207	0.002405	0.002648
3.065	0.113018	0.037979	0.009713	0.009997	0.033233	0.027571	0.121771	0.021825	0.007074	0.016624	0.077993	0.007317	0.011139	0.132124	0.00239	0.002642
3.0655	0.112438	0.038129	0.009617	0.009791	0.033597	0.027651	0.12144	0.021645	0.007026	0.016551	0.07786	0.00726	0.010734	0.131053	0.002375	0.002636
3.066	0.111859	0.038277	0.009521	0.009586	0.033963	0.027735	0.121101	0.021466	0.006979	0.016479	0.07771	0.007202	0.01034	0.129994	0.002361	0.00263
3.0665	0.11128	0.038422	0.009426	0.009382	0.03433	0.027822	0.120753	0.021289	0.006934	0.016407	0.077545	0.007143	0.009956	0.128946	0.002347	0.002625
3.067	0.110701	0.038565	0.009331	0.009179	0.034698	0.027912	0.120396	0.021115	0.00689	0.016336	0.077365	0.007085	0.009581	0.12791	0.002333	0.002619
3.0675	0.110122	0.038707	0.009236	0.008977	0.035068	0.028006	0.120029	0.020942	0.006848	0.016265	0.077169	0.007025	0.009216	0.126885	0.00232	0.002614
3.068	0.109544	0.038848	0.009142	0.008777	0.035438	0.028103	0.119652	0.020772	0.006806	0.016195	0.076959	0.006965	0.008861	0.125872	0.002307	0.002609
3.0685	0.108965	0.038988	0.009048	0.008578	0.03581	0.028203	0.119265	0.020604	0.006766	0.016124	0.076734	0.006905	0.008515	0.12487	0.002295	0.002605
3.069	0.108385	0.039127	0.008955	0.008381	0.036181	0.028306	0.118865	0.020437	0.006728	0.016053	0.076496	0.006844	0.008178	0.123879	0.002283	0.002601
3.0695	0.107806	0.039266	0.008862	0.008184	0.036553	0.028412	0.118455	0.020273	0.00669	0.015982	0.076243	0.006783	0.00785	0.122898	0.002272	0.002596
3.07	0.107225	0.039406	0.00877	0.007989	0.036925	0.028521	0.118032	0.020111	0.006653	0.01591	0.075977	0.006721	0.007531	0.121929	0.002262	0.002593
3.0705	0.106644	0.039546	0.008678	0.007794	0.037297	0.028633	0.117597	0.019951	0.006618	0.015838	0.075698	0.006658	0.007221	0.12097	0.002251	0.002589
3.071	0.106061	0.039687	0.008586	0.007601	0.037669	0.028749	0.117149	0.019793	0.006583	0.015765	0.075407	0.006595	0.006919	0.120021	0.002242	0.002586
3.0715	0.105477	0.039829	0.008494	0.00741	0.038039	0.028867	0.116688	0.019637	0.006549	0.015691	0.075103	0.006532	0.006626	0.119083	0.002233	0.002583
3.072	0.104893	0.039973	0.008403	0.007219	0.038409	0.028989	0.116213	0.019484	0.006516	0.015617	0.074787	0.006468	0.006341	0.118155	0.002224	0.00258
3.0725	0.104307	0.040119	0.008313	0.007029	0.038778	0.029114	0.115725	0.019332	0.006484	0.015541	0.07446	0.006404	0.006064	0.117238	0.002216	0.002577
3.073	0.103719	0.040267	0.008222	0.00684	0.039145	0.029242	0.115224	0.019183	0.006452	0.015464	0.074121	0.006339	0.005795	0.116331	0.002209	0.002575
3.0735	0.103132	0.040419	0.008132	0.006653	0.03951	0.029373	0.114709	0.019035	0.006421	0.015387	0.073771	0.006273	0.005534	0.115434	0.002202	0.002573
3.074	0.102543	0.040574	0.008042	0.006466	0.039874	0.029507	0.114181	0.01889	0.006391	0.015308	0.073412	0.006207	0.005281	0.114547	0.002196	0.002571
3.0745	0.101955	0.040732	0.007952	0.006281	0.040235	0.029645	0.11364	0.018747	0.006361	0.015228	0.073042	0.00614	0.005036	0.113669	0.00219	0.00257
3.075	0.101367	0.040895	0.007863	0.006096	0.040595	0.029786	0.113085	0.018606	0.006332	0.015146	0.072663	0.006073	0.004798	0.112801	0.002185	0.002569
3.0755	0.10078	0.041063	0.007774	0.005913	0.040951	0.02993	0.112517	0.018467	0.006303	0.015063	0.072276	0.006005	0.004568	0.111943	0.00218	0.002568
3.076	0.100194	0.041235	0.007685	0.00573	0.041305	0.030078	0.111936	0.01833	0.006275	0.014979	0.071881	0.005937	0.004346	0.111094	0.002176	0.002568
3.0765	0.099611	0.041413	0.007596	0.005549	0.041656	0.030229	0.111342	0.018196	0.006247	0.014894	0.071478	0.005868	0.00413	0.110254	0.002173	0.002568
3.077	0.099031	0.041597	0.007507	0.005368	0.042004	0.030384	0.110735	0.018063	0.00622	0.014807	0.071068	0.005798	0.003922	0.109423	0.00217	0.002568
3.0775	0.098453	0.041787	0.007418	0.005189	0.042348	0.030543	0.110115	0.017933	0.006193	0.014719	0.070653	0.005728	0.003721	0.108601	0.002168	0.002569
3.078	0.09788	0.041984	0.007329	0.00501	0.042688	0.030704	0.109483	0.017805	0.006167	0.01463	0.070232	0.005657	0.003526	0.107788	0.002167	0.00257
3.0785	0.097312	0.042188	0.007241	0.004832	0.043025	0.03087	0.10884	0.017679	0.006141	0.014539	0.069806	0.005586	0.003339	0.106984	0.002166	0.002572
3.079	0.09675	0.0424	0.007152	0.004655	0.043357	0.031039	0.108184	0.017555	0.006115	0.014447	0.069377	0.005514	0.003158	0.106189	0.002166	0.002573
3.0795	0.096194	0.042619	0.007063	0.004479	0.043686	0.031211	0.107518	0.017434	0.00609	0.014354	0.068944	0.005441	0.002984	0.105403	0.002167	0.002576
3.08	0.095646	0.042847	0.006974	0.004303	0.044009	0.031388	0.106841	0.017314	0.006065	0.01426	0.068509	0.005368	0.002816	0.104627	0.002168	0.002578
3.0805	0.095108	0.043083	0.006885	0.004129	0.044329	0.031568	0.106155	0.017196	0.00604	0.014165	0.068073	0.005294	0.002655	0.103859	0.00217	0.002581
3.081	0.094579	0.043328	0.006796	0.003955	0.044643	0.031751	0.105459	0.017081	0.006016	0.014068	0.067637	0.005219	0.0025	0.103099	0.002173	0.002585
3.0815	0.094061	0.043583	0.006707	0.003782	0.044952	0.031938	0.104754	0.016967	0.005992	0.013971	0.067202	0.005144	0.002351	0.102349	0.002177	0.002589
3.082	0.093555	0.043847	0.006618	0.00361	0.045256	0.03213	0.10404	0.016856	0.005969	0.013873	0.066768	0.005068	0.002209	0.101607	0.002181	0.002593
3.0825	0.093062	0.044122	0.006528	0.003438	0.045554	0.032325	0.103319	0.016746	0.005945	0.013774	0.066337	0.004991	0.002072	0.100874	0.002186	0.002598
3.083	0.092584	0.044408	0.006438	0.003267	0.045847	0.032523	0.102591	0.016639	0.005922	0.013675	0.06591	0.004914	0.001941	0.100149	0.002192	0.002603
3.0835	0.092121	0.044704	0.006348	0.003097	0.046133	0.032726	0.101856	0.016533	0.0059	0.013574	0.065487	0.004836	0.001815	0.099432	0.002199	0.002608
3.084	0.091673	0.045012	0.006258	0.002927	0.046414	0.032933	0.101115	0.016429	0.005877	0.013474	0.06507	0.004757	0.001696	0.098723	0.002207	0.002614
3.0845	0.091243	0.045332	0.006167	0.002758	0.046688	0.033144	0.100368	0.016327	0.005855	0.013372	0.064658	0.004677	0.001582	0.098021	0.002215	0.002621
3.085	0.090831	0.045664	0.006076	0.002589	0.046956	0.033359	0.099618	0.016226	0.005833	0.013271	0.064255	0.004597	0.001473	0.097327	0.002225	0.002628
3.0855	0.090437	0.046008	0.005984	0.002421	0.047216	0.033578	0.098863	0.016127	0.005811	0.013169	0.063859	0.004516	0.001369	0.09664	0.002235	0.002635
3.086	0.090063	0.046365	0.005892	0.002254	0.04747	0.033801	0.098104	0.01603	0.00579	0.013066	0.063472	0.004434	0.001271	0.095959	0.002246	0.002643
3.0865	0.08971	0.046735	0.0058	0.002087	0.047716	0.034029	0.097343	0.015935	0.005768	0.012964	0.063095	0.004351	0.001178	0.095285	0.002258	0.002651
3.087	0.089378	0.047119	0.005707	0.001921	0.047955	0.03426	0.09658	0.015841	0.005747	0.012861	0.062728	0.004268	0.00109	0.094616	0.002271	0.00266
3.0875	0.089068	0.047517	0.005614	0.001755	0.048187	0.034496	0.095815	0.015748	0.005726	0.012758	0.062373	0.004183	0.001007	0.093953	0.002285	0.002669
3.088	0.088781	0.047928	0.00552	0.00159	0.04841	0.034736	0.09505	0.015657	0.005705	0.012655	0.062031	0.004098	0.000928	0.093296	0.0023	0.002678
3.0885	0.088518	0.048354	0.005426	0.001425	0.048626	0.03498	0.094284	0.015567	0.005685	0.012553	0.061701	0.004012	0.000854	0.092643	0.002316	0.002688
3.089	0.08828	0.048795	0.005331	0.00126	0.048833	0.035229	0.093519	0.015479	0.005664	0.01245	0.061386	0.003925	0.000785	0.091994	0.002332	0.002698
3.0895	0.088068	0.04925	0.005235	0.001096	0.049032	0.035481	0.092755	0.015392	0.005644	0.012347	0.061085	0.003837	0.000721	0.09135	0.00235	0.002709
3.09	0.087881	0.049721	0.005139	0.000933	0.049223	0.035738	0.091992	0.015306	0.005624	0.012245	0.060799	0.003748	0.000661	0.090709	0.002369	0.00272
3.0905	0.087722	0.050207	0.005042	0.00077	0.049406	0.035999	0.091232	0.015221	0.005604	0.012143	0.06053	0.003658	0.000605	0.090072	0.002389	0.002732
3.091	0.08759	0.050709	0.004945	0.000607	0.04958	0.036264	0.090475	0.015138	0.005585	0.012041	0.060278	0.003568	0.000553	0.089437	0.00241	0.002744
3.0915	0.087487	0.051227	0.004847	0.000445	0.049746	0.036533	0.089721	0.015055	0.005566	0.01194	0.060044	0.003476	0.000506	0.088806	0.002432	0.002756
3.092	0.087413	0.051761	0.004749	0.000282	0.049903	0.036806	0.088971	0.014974	0.005547	0.011839	0.059829	0.003384	0.000463	0.088177	0.002455	0.002769
3.0925	0.087369	0.052311	0.004649	0.000121	0.050052	0.037083	0.088225	0.014894	0.005528	0.011739	0.059633	0.003291	0.000424	0.087551	0.002479	0.002782
3.093	0.087356	0.052878	0.00455	0	0.050193	0.037363	0.087485	0.014814	0.005509	0.011639	0.059457	0.003196	0.000388	0.086927	0.002505	0.002795
3.0935	0.087374	0.053462	0.004449	0	0.050324	0.037648	0.08675	0.014735	0.005491	0.01154	0.059302	0.003101	0.000357	0.086305	0.002531	0.002809
3.094	0.087423	0.054063	0.004348	0	0.050447	0.037936	0.086021	0.014658	0.005473	0.011442	0.059169	0.003005	0.000329	0.085684	0.002559	0.002824
3.0945	0.087506	0.05468	0.004246	0	0.050562	0.038228	0.085298	0.014581	0.005455	0.011344	0.059059	0.002908	0.000305	0.085065	0.002588	0.002838
3.095	0.087622	0.055315	0.004144	0	0.050667	0.038523	0.084582	0.014504	0.005437	0.011247	0.058971	0.00281	0.000285	0.084448	0.002618	0.002853
3.0955	0.087772	0.055967	0.004041	0	0.050764	0.038821	0.083873	0.014429	0.005419	0.011151	0.058907	0.002712	0.000268	0.083832	0.002649	0.002869
3.096	0.087956	0.056637	0.003938	0	0.050852	0.039123	0.083172	0.014354	0.005402	0.011056	0.058868	0.002612	0.000254	0.083217	0.002682	0.002884
3.0965	0.088175	0.057324	0.003834	0	0.050931	0.039428	0.082478	0.014279	0.005385	0.010961	0.058854	0.002512	0.000244	0.082603	0.002716	0.002901
3.097	0.088431	0.058029	0.003729	0	0.051001	0.039736	0.081793	0.014205	0.005368	0.010868	0.058865	0.002411	0.000237	0.081989	0.002751	0.002917
3.0975	0.088722	0.058752	0.003624	0	0.051063	0.040046	0.081116	0.014131	0.005352	0.010775	0.058903	0.002309	0.000234	0.081377	0.002788	0.002934
3.098	0.08905	0.059492	0.003518	0	0.051116	0.04036	0.080448	0.014057	0.005336	0.010684	0.058968	0.002206	0.000233	0.080766	0.002826	0.002951
3.0985	0.089416	0.06025	0.003411	0	0.05116	0.040675	0.07979	0.013984	0.00532	0.010593	0.05906	0.002103	0.000235	0.080156	0.002865	0.002968
3.099	0.089819	0.061027	0.003304	0	0.051195	0.040994	0.079141	0.013911	0.005304	0.010504	0.059181	0.001999	0.000241	0.079547	0.002906	0.002986
3.0995	0.09026	0.061821	0.003197	0	0.051222	0.041315	0.078502	0.013838	0.005288	0.010416	0.059331	0.001895	0.000249	0.078938	0.002948	0.003003
3.1	0.090741	0.062633	0.003089	0	0.051239	0.041638	0.077874	0.013766	0.005273	0.010329	0.05951	0.001789	0.00026	0.078331	0.002991	0.003022
3.1005	0.09126	0.063463	0.00298	0	0.051249	0.041963	0.077255	0.013693	0.005258	0.010244	0.059718	0.001684	0.000274	0.077726	0.003036	0.00304
3.101	0.09182	0.064311	0.002871	0	0.05125	0.04229	0.076648	0.01362	0.005243	0.010159	0.059957	0.001578	0.00029	0.077121	0.003083	0.003058
3.1015	0.09242	0.065178	0.002761	0	0.051242	0.042619	0.076052	0.013548	0.005229	0.010076	0.060227	0.001471	0.000309	0.076518	0.003131	0.003077
3.102	0.09306	0.066062	0.002651	0	0.051227	0.04295	0.075467	0.013475	0.005215	0.009995	0.060529	0.001365	0.00033	0.075916	0.00318	0.003096
3.1025	0.093742	0.066964	0.002541	0	0.051203	0.043282	0.074893	0.013402	0.005201	0.009915	0.060862	0.001257	0.000354	0.075315	0.003231	0.003116
3.103	0.094466	0.067885	0.00243	0	0.051171	0.043616	0.074332	0.013329	0.005188	0.009836	0.061228	0.00115	0.00038	0.074715	0.003284	0.003135
3.1035	0.095231	0.068823	0.002318	0	0.051131	0.04395	0.073782	0.013256	0.005175	0.009759	0.061627	0.001042	0.000408	0.074117	0.003338	0.003155
3.104	0.09604	0.069779	0.002206	0	0.051083	0.044287	0.073244	0.013183	0.005162	0.009683	0.062059	0.000934	0.000439	0.07352	0.003393	0.003174
3.1045	0.096891	0.070754	0.002094	0	0.051028	0.044624	0.072719	0.01311	0.00515	0.009609	0.062524	0.000826	0.000472	0.072923	0.003451	0.003194
3.105	0.097786	0.071746	0.001981	0	0.050965	0.044961	0.072207	0.013036	0.005138	0.009536	0.063024	0.000718	0.000506	0.072328	0.00351	0.003214
3.1055	0.098724	0.072756	0.001868	0	0.050895	0.0453	0.071707	0.012963	0.005126	0.009465	0.063558	0.00061	0.000543	0.071734	0.00357	0.003234
3.106	0.099707	0.073785	0.001755	0	0.050817	0.045639	0.07122	0.012889	0.005115	0.009396	0.064128	0.000502	0.000581	0.071141	0.003632	0.003255
3.1065	0.100734	0.074831	0.001641	0	0.050731	0.045978	0.070746	0.012815	0.005104	0.009328	0.064733	0.000394	0.000622	0.070549	0.003696	0.003275
3.107	0.101806	0.075895	0.001527	0	0.050638	0.046318	0.070285	0.012741	0.005094	0.009262	0.065373	0.000286	0.000664	0.069959	0.003762	0.003295
3.1075	0.102922	0.076976	0.001413	0	0.050538	0.046658	0.069837	0.012666	0.005084	0.009198	0.06605	0.000178	0.000708	0.069369	0.003829	0.003316
3.108	0.104084	0.078076	0.001299	0	0.050431	0.046997	0.069403	0.012592	0.005074	0.009135	0.066763	7.1e-05	0.000753	0.068781	0.003898	0.003336
3.1085	0.105291	0.079193	0.001184	0	0.050317	0.047336	0.068982	0.012517	0.005065	0.009074	0.067514	0	0.0008	0.068194	0.003968	0.003357
3.109	0.106543	0.080327	0.001069	0	0.050196	0.047675	0.068574	0.012443	0.005056	0.009015	0.068301	0	0.000848	0.067609	0.004041	0.003377
3.1095	0.107842	0.081479	0.000954	0	0.050068	0.048013	0.06818	0.012368	0.005048	0.008958	0.069126	0	0.000898	0.067025	0.004115	0.003397
3.11	0.109186	0.082648	0.000839	0	0.049933	0.048349	0.0678	0.012293	0.00504	0.008902	0.069989	0	0.000949	0.066443	0.004191	0.003418
3.1105	0.110576	0.083834	0.000724	0	0.049792	0.048685	0.067432	0.012218	0.005032	0.008849	0.070889	0	0.001001	0.065863	0.004268	0.003438
3.111	0.112013	0.085038	0.000609	0	0.049645	0.049019	0.067079	0.012143	0.005024	0.008797	0.071828	0	0.001055	0.065285	0.004348	0.003458
3.1115	0.113496	0.086258	0.000494	0	0.049491	0.049351	0.066739	0.012068	0.005017	0.008747	0.072806	0	0.001109	0.064708	0.004429	0.003478
3.112	0.115025	0.087495	0.000379	0	0.049331	0.049681	0.066413	0.011993	0.005011	0.008699	0.073822	0	0.001165	0.064134	0.004512	0.003498
3.1125	0.116602	0.088749	0.000264	0	0.049165	0.050009	0.0661	0.011918	0.005005	0.008652	0.074878	0	0.001222	0.063561	0.004597	0.003518
3.113	0.118225	0.09002	0.000149	0	0.048994	0.050334	0.065801	0.011844	0.004999	0.008608	0.075972	0	0.00128	0.06299	0.004683	0.003538
3.1135	0.119895	0.091307	3.5e-05	0	0.048816	0.050656	0.065516	0.011769	0.004993	0.008565	0.077106	0	0.001338	0.062422	0.004772	0.003558
3.114	0.121613	0.092609	0	0	0.048633	0.050975	0.065243	0.011695	0.004988	0.008525	0.078279	0	0.001398	0.061855	0.004862	0.003577
3.1145	0.123377	0.093928	0	0	0.048444	0.05129	0.064984	0.011622	0.004983	0.008486	0.079493	0	0.001458	0.061291	0.004954	0.003596
3.115	0.125189	0.095262	0	0	0.048249	0.051601	0.064739	0.011548	0.004979	0.008449	0.080746	0	0.001519	0.060729	0.005048	0.003615
3.1155	0.127047	0.096611	0	0	0.048049	0.051907	0.064506	0.011475	0.004975	0.008414	0.082038	0	0.00158	0.06017	0.005143	0.003633
3.116	0.128953	0.097976	0	0	0.047843	0.052209	0.064286	0.011403	0.004971	0.008381	0.083371	0	0.001642	0.059613	0.005241	0.003651
3.1165	0.130906	0.099354	0	0	0.047632	0.052506	0.064079	0.011331	0.004968	0.00835	0.084744	0	0.001705	0.059058	0.00534	0.003669
3.117	0.132907	0.100748	0	0	0.047416	0.052797	0.063885	0.011259	0.004965	0.008321	0.086157	0	0.001768	0.058507	0.005441	0.003687
3.1175	0.134954	0.102155	0	0	0.047195	0.053083	0.063703	0.011188	0.004962	0.008293	0.087611	0	0.001831	0.05796	0.005544	0.003704
3.118	0.137048	0.103576	0	0	0.046968	0.053362	0.063534	0.011117	0.004959	0.008268	0.089104	0	0.001895	0.057415	0.005649	0.00372
3.1185	0.139189	0.10501	0	0	0.046736	0.053634	0.063376	0.011047	0.004957	0.008244	0.090638	0	0.001959	0.056875	0.005756	0.003737
3.119	0.141376	0.106458	0	0	0.0465	0.0539	0.063231	0.010978	0.004956	0.008222	0.092211	0	0.002023	0.056338	0.005864	0.003752
3.1195	0.14361	0.107919	0	0	0.046258	0.054158	0.063097	0.010909	0.004954	0.008202	0.093825	0	0.002087	0.055805	0.005974	0.003768
3.12	0.145891	0.109392	0	0	0.046012	0.054408	0.062975	0.010841	0.004953	0.008184	0.095479	0	0.002152	0.055277	0.006086	0.003782
3.1205	0.148217	0.110877	0	0	0.045761	0.054651	0.062863	0.010774	0.004952	0.008168	0.097173	0	0.002216	0.054754	0.0062	0.003797
3.121	0.150589	0.112374	0	0	0.045506	0.054884	0.062763	0.010707	0.004951	0.008153	0.098906	0	0.002281	0.054235	0.006316	0.00381
3.1215	0.153007	0.113884	0	0	0.045246	0.055109	0.062674	0.010641	0.004951	0.00814	0.10068	0	0.002345	0.053721	0.006433	0.003823
3.122	0.155469	0.115404	0	0	0.044982	0.055325	0.062595	0.010576	0.00495	0.008129	0.102493	0	0.00241	0.053212	0.006552	0.003835
3.1225	0.157976	0.116936	0	0	0.044713	0.05553	0.062526	0.010512	0.00495	0.00812	0.104345	0	0.002474	0.052708	0.006673	0.003847
3.123	0.160528	0.118479	0	0	0.04444	0.055726	0.062467	0.010449	0.00495	0.008112	0.106236	0	0.002538	0.05221	0.006796	0.003858
3.1235	0.163123	0.120032	0	0	0.044164	0.055911	0.062418	0.010386	0.004951	0.008107	0.108166	0	0.002601	0.051718	0.00692	0.003868
3.124	0.165761	0.121595	0	0	0.043883	0.056085	0.062378	0.010325	0.004951	0.008102	0.110135	0	0.002665	0.051231	0.007046	0.003877
3.1245	0.168442	0.123168	0	0	0.043598	0.056248	0.062348	0.010264	0.004952	0.0081	0.112142	0	0.002728	0.05075	0.007174	0.003886
3.125	0.171165	0.124751	0	0	0.043308	0.0564	0.062326	0.010205	0.004952	0.008099	0.114188	0	0.002791	0.050275	0.007304	0.003894
3.1255	0.17393	0.126343	0	0	0.043015	0.05654	0.062312	0.010146	0.004953	0.0081	0.11627	0	0.002853	0.049806	0.007435	0.003901
3.126	0.176735	0.127945	0	0	0.042718	0.056668	0.062307	0.010088	0.004954	0.008102	0.11839	0	0.002915	0.049343	0.007568	0.003907
3.1265	0.17958	0.129555	0	0	0.042417	0.056784	0.06231	0.010032	0.004955	0.008106	0.120547	0	0.002976	0.048887	0.007703	0.003912
3.127	0.182465	0.131175	0	0	0.042112	0.056888	0.062321	0.009976	0.004956	0.008111	0.12274	0	0.003037	0.048436	0.00784	0.003916
3.1275	0.185388	0.132803	0	0	0.041803	0.05698	0.062339	0.009922	0.004958	0.008118	0.124969	0	0.003097	0.047993	0.007978	0.003919
3.128	0.188349	0.13444	0	0	0.04149	0.05706	0.062365	0.009868	0.004959	0.008127	0.127234	0	0.003157	0.047555	0.008117	0.003922
3.1285	0.191348	0.136085	0	0	0.041173	0.057128	0.062398	0.009816	0.00496	0.008137	0.129534	0	0.003216	0.047124	0.008259	0.003923
3.129	0.194382	0.137739	0	0	0.040853	0.057183	0.062438	0.009765	0.004961	0.008148	0.131869	0	0.003274	0.0467	0.008402	0.003924
3.1295	0.197453	0.139401	0	0	0.040529	0.057227	0.062485	0.009715	0.004963	0.008161	0.134238	0	0.003331	0.046282	0.008546	0.003923
3.13	0.200558	0.141071	0	0	0.040202	0.057258	0.062538	0.009667	0.004964	0.008175	0.136642	0	0.003388	0.04587	0.008693	0.003921
3.1305	0.203697	0.142749	0	0	0.039871	0.057277	0.062597	0.00962	0.004966	0.008191	0.139079	0	0.003444	0.045466	0.00884	0.003918
3.131	0.206869	0.144435	0	0	0.039537	0.057284	0.062662	0.009574	0.004967	0.008207	0.141549	0	0.003499	0.045068	0.00899	0.003915
3.1315	0.210073	0.146129	0	0	0.0392	0.057278	0.062733	0.009529	0.004969	0.008226	0.144052	0	0.003554	0.044677	0.00914	0.00391
3.132	0.213309	0.14783	0	0	0.038861	0.057261	0.062809	0.009486	0.00497	0.008245	0.146588	0	0.003607	0.044293	0.009293	0.003904
3.1325	0.216576	0.149538	0	0	0.038518	0.057232	0.06289	0.009444	0.004971	0.008266	0.149155	0	0.00366	0.043916	0.009447	0.003897
3.133	0.219872	0.151253	0	0	0.038174	0.057192	0.062976	0.009404	0.004973	0.008288	0.151755	0	0.003712	0.043547	0.009602	0.003889
3.1335	0.223197	0.152975	0	0	0.037826	0.05714	0.063066	0.009366	0.004974	0.008311	0.154386	0	0.003762	0.043184	0.009758	0.00388
3.134	0.22655	0.154703	0	0	0.037477	0.057077	0.063161	0.009329	0.004976	0.008335	0.157048	0	0.003813	0.042828	0.009916	0.00387
3.1345	0.229929	0.156438	0	0	0.037126	0.057003	0.063258	0.009294	0.004977	0.00836	0.159742	0	0.003862	0.04248	0.010076	0.003858
3.135	0.233333	0.158179	0	0	0.036773	0.056919	0.063359	0.009261	0.004978	0.008387	0.162465	0	0.00391	0.042139	0.010236	0.003846
3.1355	0.236762	0.159927	0	0	0.036418	0.056825	0.063463	0.00923	0.00498	0.008414	0.16522	0	0.003958	0.041806	0.010398	0.003832
3.136	0.240214	0.16168	0	0	0.036062	0.056722	0.063569	0.009201	0.004981	0.008442	0.168004	0	0.004004	0.04148	0.010561	0.003817
3.1365	0.243688	0.163439	0	0	0.035704	0.056609	0.063677	0.009174	0.004982	0.008472	0.170818	0	0.00405	0.041162	0.010726	0.003802
3.137	0.247182	0.165204	0	0	0.035345	0.056487	0.063786	0.009149	0.004983	0.008502	0.173662	0	0.004095	0.040852	0.010891	0.003785
3.1375	0.250696	0.166974	0	0	0.034986	0.056357	0.063898	0.009127	0.004985	0.008533	0.176536	0	0.004139	0.04055	0.011058	0.003767
3.138	0.254227	0.168749	0	0	0.034625	0.056218	0.06401	0.009107	0.004986	0.008564	0.179439	0	0.004182	0.040256	0.011226	0.003747
3.1385	0.257776	0.170528	0	0	0.034263	0.056071	0.064123	0.009089	0.004987	0.008597	0.182371	0	0.004224	0.03997	0.011394	0.003727
3.139	0.26134	0.172311	0	0	0.0339	0.055917	0.064236	0.009074	0.004988	0.00863	0.185333	0	0.004265	0.039693	0.011564	0.003706
3.1395	0.264919	0.174098	0	0	0.033537	0.055755	0.06435	0.009062	0.004988	0.008663	0.188324	0	0.004305	0.039424	0.011735	0.003683
3.14	0.268511	0.175888	0	0	0.033174	0.055587	0.064463	0.009052	0.004989	0.008698	0.191343	0	0.004345	0.039164	0.011907	0.00366
3.1405	0.272115	0.177681	0	0	0.03281	0.055411	0.064577	0.009045	0.00499	0.008733	0.19439	0	0.004383	0.038913	0.012079	0.003635
3.141	0.27573	0.179476	0	0	0.032445	0.055229	0.06469	0.00904	0.00499	0.008768	0.197466	0	0.004421	0.038671	0.012253	0.003609
3.1415	0.279354	0.181272	0	0	0.032081	0.055041	0.064802	0.009039	0.004991	0.008804	0.200571	0	0.004457	0.038438	0.012427	0.003582
3.142	0.282987	0.183071	0	0	0.031716	0.054847	0.064914	0.009041	0.004991	0.00884	0.203703	0	0.004493	0.038215	0.012602	0.003554
3.1425	0.286626	0.18487	0	0	0.031352	0.054648	0.065026	0.009045	0.004991	0.008876	0.206864	0	0.004527	0.038002	0.012778	0.003525
3.143	0.290272	0.186671	0	0	0.030988	0.054442	0.065136	0.009053	0.004991	0.008913	0.210053	0	0.004561	0.0378	0.012954	0.003495
3.1435	0.293922	0.188472	0	0	0.030624	0.054232	0.065246	0.009064	0.004991	0.00895	0.213272	0	0.004594	0.037608	0.013131	0.003463
3.144	0.297577	0.190273	0	0	0.030261	0.054017	0.065354	0.009079	0.00499	0.008987	0.216519	0	0.004626	0.037428	0.013308	0.003431
3.1445	0.301234	0.192074	0	0	0.0299	0.053796	0.065461	0.009096	0.00499	0.009024	0.219796	0	0.004656	0.037259	0.013486	0.003397
3.145	0.304892	0.193875	0	0	0.029539	0.053571	0.065567	0.009118	0.004989	0.009061	0.223102	0	0.004686	0.037103	0.013664	0.003363
3.1455	0.30855	0.195674	0	7.5e-05	0.02918	0.053342	0.065672	0.009143	0.004989	0.009099	0.226439	0	0.004715	0.036958	0.013842	0.003327
3.146	0.312207	0.197472	0	0.000547	0.028823	0.053108	0.065775	0.009171	0.004988	0.009136	0.229806	0	0.004743	0.036827	0.014021	0.00329
3.1465	0.315861	0.199268	0	0.001037	0.028468	0.052871	0.065877	0.009203	0.004987	0.009173	0.233204	0	0.00477	0.03671	0.0142	0.003252
3.147	0.319512	0.201061	0	0.001546	0.028115	0.05263	0.065978	0.00924	0.004986	0.00921	0.236633	0	0.004796	0.036606	0.01438	0.003213
3.1475	0.323158	0.202852	0	0.002072	0.027766	0.052386	0.066077	0.00928	0.004985	0.009247	0.240092	0	0.004821	0.036517	0.014559	0.003173
3.148	0.326799	0.204641	0	0.002618	0.027419	0.052139	0.066176	0.009324	0.004984	0.009284	0.243584	0	0.004845	0.036443	0.014739	0.003132
3.1485	0.330433	0.206425	0	0.003183	0.027075	0.05189	0.066273	0.009373	0.004982	0.00932	0.247106	0.000163	0.004868	0.036385	0.014918	0.00309
3.149	0.334061	0.208207	0	0.003767	0.026735	0.051638	0.06637	0.009425	0.004981	0.009357	0.250661	0.000423	0.004891	0.036343	0.015098	0.003046
3.1495	0.33768	0.209984	0	0.004371	0.026398	0.051385	0.066466	0.009482	0.004979	0.009392	0.254248	0.000694	0.004912	0.036319	0.015278	0.003001
3.15	0.34129	0.211757	0	0.004995	0.026065	0.05113	0.066563	0.009544	0.004978	0.009428	0.257868	0.000977	0.004932	0.036312	0.015457	0.002956
3.1505	0.34489	0.213525	0	0.00564	0.025737	0.050874	0.066659	0.00961	0.004976	0.009463	0.261522	0.001272	0.004951	0.036323	0.015637	0.002909
3.151	0.348478	0.215289	0	0.006306	0.025414	0.050617	0.066756	0.00968	0.004974	0.009497	0.26521	0.001579	0.00497	0.036354	0.015816	0.002861
3.1515	0.352055	0.217047	0	0.006992	0.025095	0.050359	0.066853	0.009756	0.004972	0.009531	0.268932	0.001898	0.004987	0.036404	0.015995	0.002812
3.152	0.355619	0.2188	0	0.0077	0.024782	0.050101	0.066951	0.009836	0.00497	0.009565	0.27269	0.00223	0.005003	0.036473	0.016174	0.002761
3.1525	0.359169	0.220548	0	0.00843	0.024474	0.049842	0.067051	0.009921	0.004968	0.009598	0.276483	0.002574	0.005018	0.036564	0.016352	0.00271
3.153	0.362704	0.22229	0	0.009182	0.024172	0.049584	0.067151	0.010011	0.004966	0.00963	0.280313	0.002932	0.005032	0.036676	0.01653	0.002657
3.1535	0.366222	0.224026	5.2e-05	0.009957	0.023876	0.049326	0.067254	0.010106	0.004964	0.009662	0.28418	0.003303	0.005046	0.036809	0.016708	0.002604
3.154	0.369724	0.225757	0.000317	0.010754	0.023587	0.049068	0.067358	0.010207	0.004961	0.009693	0.288084	0.003687	0.005058	0.036965	0.016885	0.002549
3.1545	0.373207	0.22748	0.000594	0.011574	0.023305	0.048811	0.067464	0.010313	0.004959	0.009724	0.292027	0.004085	0.005069	0.037144	0.017062	0.002493
3.155	0.376671	0.229197	0.000883	0.012418	0.023029	0.048555	0.067573	0.010424	0.004957	0.009753	0.296008	0.004496	0.005079	0.037347	0.017238	0.002436
3.1555	0.380115	0.230906	0.001183	0.013286	0.022762	0.0483	0.067684	0.010541	0.004954	0.009783	0.300028	0.004922	0.005088	0.037573	0.017414	0.002379
3.156	0.383538	0.232607	0.001497	0.014177	0.022502	0.048046	0.067798	0.010663	0.004952	0.009811	0.304088	0.005362	0.005096	0.037824	0.017589	0.00232
3.1565	0.386939	0.234301	0.001822	0.015093	0.02225	0.047794	0.067915	0.010791	0.00495	0.009839	0.308188	0.005817	0.005102	0.0381	0.017764	0.00226
3.157	0.390317	0.235986	0.002161	0.016034	0.022007	0.047542	0.068035	0.010925	0.004947	0.009867	0.312328	0.006286	0.005108	0.038402	0.017937	0.002199
3.1575	0.393671	0.237663	0.002513	0.017	0.021773	0.047293	0.068158	0.011064	0.004945	0.009893	0.316509	0.00677	0.005113	0.038729	0.01811	0.002138
3.158	0.397	0.239331	0.002878	0.017992	0.021547	0.047045	0.068286	0.01121	0.004943	0.009919	0.320731	0.00727	0.005116	0.039084	0.018282	0.002075
3.1585	0.400302	0.240989	0.003257	0.01901	0.021332	0.0468	0.068418	0.011361	0.004941	0.009945	0.324993	0.007785	0.005118	0.039465	0.018453	0.002012
3.159	0.403577	0.242638	0.00365	0.020053	0.021126	0.046556	0.068554	0.011518	0.00494	0.00997	0.329297	0.008316	0.005119	0.039875	0.018624	0.001948
3.1595	0.406824	0.244278	0.004057	0.021124	0.02093	0.046314	0.068694	0.011682	0.004938	0.009994	0.333642	0.008862	0.005119	0.040312	0.018792	0.001883
3.16	0.410041	0.245908	0.004478	0.022221	0.020745	0.046075	0.06884	0.011852	0.004936	0.010017	0.338028	0.009425	0.005118	0.040778	0.01896	0.001817
3.1605	0.413228	0.247529	0.004914	0.023346	0.020571	0.045838	0.06899	0.012028	0.004935	0.01004	0.342454	0.010004	0.005115	0.041273	0.019127	0.00175
3.161	0.416384	0.24914	0.005365	0.024499	0.020408	0.045604	0.069146	0.01221	0.004934	0.010063	0.346921	0.0106	0.005111	0.041797	0.019292	0.001682
3.1615	0.419509	0.250743	0.005831	0.02568	0.020256	0.045373	0.069307	0.012398	0.004933	0.010084	0.351429	0.011212	0.005106	0.042352	0.019455	0.001614
3.162	0.422601	0.252337	0.006313	0.026889	0.020116	0.045144	0.069474	0.012593	0.004932	0.010105	0.355978	0.011841	0.0051	0.042937	0.019617	0.001545
3.1625	0.425662	0.253923	0.00681	0.028128	0.019989	0.044918	0.069647	0.012795	0.004931	0.010125	0.360567	0.012487	0.005092	0.043552	0.019778	0.001476
3.163	0.428692	0.2555	0.007323	0.029396	0.019874	0.044696	0.069826	0.013003	0.004931	0.010145	0.365198	0.013151	0.005084	0.044199	0.019936	0.001406
3.1635	0.43169	0.257069	0.007853	0.030694	0.019772	0.044476	0.070011	0.013217	0.004931	0.010164	0.369869	0.013832	0.005074	0.044877	0.020093	0.001335
3.164	0.434656	0.258631	0.008399	0.032022	0.019684	0.04426	0.070203	0.013439	0.004931	0.010183	0.374583	0.014531	0.005062	0.045588	0.020247	0.001264
3.1645	0.437592	0.260185	0.008962	0.033381	0.01961	0.044046	0.070401	0.013666	0.004931	0.010201	0.379337	0.015248	0.00505	0.04633	0.0204	0.001192
3.165	0.440496	0.261732	0.009542	0.034772	0.019549	0.043837	0.070607	0.013901	0.004932	0.010218	0.384133	0.015982	0.005036	0.047106	0.02055	0.001119
3.1655	0.44337	0.263272	0.010139	0.036195	0.019504	0.04363	0.07082	0.014142	0.004933	0.010235	0.388971	0.016736	0.005022	0.047914	0.020699	0.001046
3.166	0.446213	0.264804	0.010754	0.03765	0.019473	0.043427	0.07104	0.01439	0.004934	0.010252	0.39385	0.017507	0.005005	0.048756	0.020844	0.000973
3.1665	0.449026	0.26633	0.011388	0.039138	0.019457	0.043228	0.071269	0.014645	0.004935	0.010268	0.398769	0.018298	0.004988	0.049631	0.020988	0.0009
3.167	0.45181	0.267849	0.012039	0.04066	0.019458	0.043033	0.071505	0.014907	0.004937	0.010284	0.403729	0.019107	0.00497	0.050541	0.021128	0.000826
3.1675	0.454566	0.269362	0.012709	0.042216	0.019474	0.042841	0.071749	0.015176	0.004939	0.010299	0.408729	0.019936	0.00495	0.051485	0.021266	0.000752
3.168	0.457295	0.27087	0.013398	0.043806	0.019507	0.042654	0.072002	0.015452	0.004941	0.010315	0.413769	0.020783	0.004929	0.052463	0.021401	0.000677
3.1685	0.46	0.272372	0.014106	0.045431	0.019557	0.04247	0.072263	0.015736	0.004944	0.01033	0.418848	0.02165	0.004907	0.053477	0.021534	0.000603
3.169	0.46268	0.273872	0.014834	0.047093	0.019624	0.042291	0.072533	0.016026	0.004947	0.010344	0.423967	0.022537	0.004884	0.054525	0.021663	0.000528
3.1695	0.465339	0.275368	0.015581	0.04879	0.019708	0.042116	0.072812	0.016323	0.00495	0.010359	0.429125	0.023444	0.004859	0.055609	0.021789	0.000454
3.17	0.467976	0.276863	0.016349	0.050524	0.019811	0.041946	0.0731	0.016628	0.004954	0.010374	0.434321	0.02437	0.004834	0.056728	0.021912	0.000379
3.1705	0.470593	0.278358	0.017136	0.052295	0.019932	0.04178	0.073398	0.016941	0.004958	0.010388	0.439556	0.025316	0.004807	0.057884	0.022031	0.000305
3.171	0.473191	0.279854	0.017944	0.054104	0.020071	0.041619	0.073705	0.01726	0.004963	0.010403	0.444829	0.026283	0.004779	0.059075	0.022147	0.000231
3.1715	0.475771	0.281351	0.018773	0.055952	0.02023	0.041463	0.074023	0.017587	0.004968	0.010417	0.450139	0.02727	0.00475	0.060303	0.022259	0.000156
3.172	0.478335	0.282852	0.019623	0.057838	0.020407	0.041312	0.074351	0.017922	0.004973	0.010432	0.455485	0.028277	0.00472	0.061567	0.022367	8.3e-05
3.1725	0.480882	0.284355	0.020495	0.059765	0.020605	0.041166	0.07469	0.018264	0.004979	0.010447	0.460867	0.029305	0.004688	0.062868	0.022472	9e-06
3.173	0.483415	0.285864	0.021388	0.061731	0.020823	0.041025	0.07504	0.018614	0.004985	0.010462	0.466283	0.030353	0.004656	0.064206	0.022572	0
3.1735	0.485933	0.287377	0.022303	0.063737	0.021061	0.04089	0.075401	0.018971	0.004992	0.010477	0.471733	0.031423	0.004622	0.06558	0.022668	0
3.174	0.488437	0.288896	0.02324	0.065785	0.021319	0.040761	0.075774	0.019336	0.005	0.010492	0.477215	0.032513	0.004588	0.066991	0.02276	0
3.1745	0.490929	0.290421	0.024199	0.067874	0.021599	0.040637	0.076159	0.019709	0.005008	0.010508	0.482729	0.033625	0.004552	0.06844	0.022848	0
3.175	0.493409	0.291953	0.025181	0.070004	0.0219	0.04052	0.076556	0.02009	0.005016	0.010524	0.488273	0.034757	0.004516	0.069926	0.022931	0
3.1755	0.495878	0.293493	0.026186	0.072177	0.022223	0.040408	0.076966	0.020478	0.005025	0.010541	0.493846	0.035911	0.004478	0.071449	0.02301	0
3.176	0.498335	0.29504	0.027214	0.074393	0.022568	0.040303	0.077389	0.020875	0.005035	0.010558	0.499448	0.037085	0.00444	0.073009	0.023084	0
3.1765	0.500781	0.296594	0.028265	0.076651	0.022936	0.040205	0.077824	0.021279	0.005045	0.010575	0.505077	0.038282	0.0044	0.074607	0.023153	0
3.177	0.503216	0.298157	0.02934	0.078953	0.023326	0.040113	0.078273	0.021691	0.005055	0.010594	0.510733	0.039499	0.00436	0.076242	0.023218	0
3.1775	0.505642	0.299728	0.030438	0.081299	0.023739	0.040028	0.078736	0.022111	0.005067	0.010612	0.516415	0.040738	0.004318	0.077914	0.023277	0
3.178	0.508057	0.301307	0.031561	0.083688	0.024176	0.039951	0.079213	0.022539	0.005079	0.010632	0.52212	0.041999	0.004276	0.079624	0.023332	0
3.1785	0.510463	0.302894	0.032707	0.086122	0.024637	0.03988	0.079704	0.022975	0.005091	0.010652	0.52785	0.043281	0.004233	0.081371	0.023381	0
3.179	0.51286	0.304489	0.033878	0.0886	0.025121	0.039818	0.080209	0.023419	0.005105	0.010673	0.533603	0.044584	0.004189	0.083155	0.023426	0
3.1795	0.515248	0.306092	0.035073	0.091124	0.02563	0.039763	0.08073	0.023871	0.005119	0.010695	0.539379	0.045909	0.004144	0.084976	0.023465	0
3.18	0.517627	0.307703	0.036294	0.093692	0.026164	0.039716	0.081265	0.024331	0.005133	0.010717	0.545178	0.047256	0.004098	0.086834	0.023499	0
3.1805	0.519997	0.309321	0.037538	0.096305	0.026722	0.039677	0.081815	0.024799	0.005149	0.010741	0.551	0.048624	0.004052	0.08873	0.023527	0
3.181	0.522358	0.310946	0.038809	0.098964	0.027306	0.039646	0.08238	0.025275	0.005165	0.010765	0.556845	0.050014	0.004005	0.090661	0.02355	0
3.1815	0.524709	0.312577	0.040104	0.101668	0.027916	0.039625	0.082961	0.025759	0.005182	0.010791	0.562712	0.051425	0.003957	0.09263	0.023568	0
3.182	0.527052	0.314215	0.041425	0.104418	0.028552	0.039612	0.083557	0.026252	0.0052	0.010817	0.568601	0.052857	0.003908	0.094635	0.023581	0
3.1825	0.529384	0.315859	0.042771	0.107214	0.029214	0.039609	0.084169	0.026752	0.005218	0.010845	0.574512	0.054311	0.003859	0.096676	0.023589	0
3.183	0.531707	0.317508	0.044143	0.110056	0.029902	0.039615	0.084797	0.027261	0.005238	0.010874	0.580444	0.055786	0.003809	0.098753	0.023591	0
3.1835	0.53402	0.319163	0.045541	0.112943	0.030618	0.039631	0.085441	0.027778	0.005258	0.010904	0.586397	0.057283	0.003758	0.100866	0.023589	0
3.184	0.536324	0.320821	0.046965	0.115877	0.031361	0.039658	0.0861	0.028304	0.005279	0.010936	0.592369	0.0588	0.003707	0.103014	0.023581	0
3.1845	0.538618	0.322484	0.048415	0.118856	0.032132	0.039695	0.086776	0.028837	0.005301	0.010969	0.598362	0.060339	0.003655	0.105198	0.023569	0
3.185	0.540902	0.32415	0.049892	0.121881	0.032931	0.039743	0.087468	0.029379	0.005324	0.011003	0.604374	0.061898	0.003603	0.107416	0.023552	0
3.1855	0.543177	0.325818	0.051394	0.124952	0.033759	0.039803	0.088175	0.02993	0.005348	0.011038	0.610406	0.063478	0.00355	0.109668	0.023531	0
3.186	0.545441	0.327487	0.052923	0.128069	0.034615	0.039874	0.088899	0.030488	0.005373	0.011075	0.616456	0.065079	0.003496	0.111954	0.023505	0
3.1865	0.547695	0.329158	0.054479	0.131231	0.0355	0.039956	0.089639	0.031055	0.005399	0.011113	0.622525	0.0667	0.003443	0.114274	0.023474	0
3.187	0.549938	0.330827	0.056061	0.134439	0.036415	0.040051	0.090395	0.03163	0.005426	0.011153	0.628611	0.068341	0.003388	0.116627	0.02344	0
3.1875	0.55217	0.332495	0.05767	0.137692	0.037359	0.040158	0.091167	0.032213	0.005454	0.011195	0.634715	0.070003	0.003334	0.119013	0.023401	0
3.188	0.55439	0.334161	0.059306	0.140991	0.038334	0.040278	0.091955	0.032804	0.005483	0.011237	0.640836	0.071684	0.003279	0.12143	0.023359	0
3.1885	0.556598	0.335822	0.060968	0.144334	0.039338	0.040411	0.092759	0.033404	0.005513	0.011282	0.646972	0.073384	0.003224	0.123879	0.023312	0
3.189	0.558793	0.33748	0.062657	0.147721	0.040374	0.040558	0.093579	0.034011	0.005544	0.011328	0.653124	0.075104	0.003169	0.126359	0.023262	0
3.1895	0.560976	0.339133	0.064372	0.151153	0.041441	0.040719	0.094415	0.034627	0.005577	0.011376	0.659292	0.076843	0.003114	0.12887	0.023209	0
3.19	0.563146	0.340779	0.066114	0.154628	0.042539	0.040893	0.095266	0.03525	0.00561	0.011425	0.665473	0.0786	0.003059	0.13141	0.023152	0
3.1905	0.565302	0.342419	0.067883	0.158147	0.043669	0.041083	0.096133	0.035882	0.005644	0.011476	0.671669	0.080376	0.003004	0.13398	0.023093	0
3.191	0.567446	0.34405	0.069678	0.161708	0.04483	0.041289	0.097016	0.036521	0.00568	0.011529	0.677878	0.08217	0.002949	0.136578	0.023031	0
3.1915	0.569575	0.345673	0.0715	0.165312	0.046024	0.041511	0.097914	0.037168	0.005717	0.011583	0.684098	0.083982	0.002894	0.139204	0.022967	0
3.192	0.57169	0.347286	0.073348	0.168958	0.047251	0.041749	0.098826	0.037823	0.005755	0.011639	0.69033	0.085811	0.00284	0.141856	0.022901	0
3.1925	0.57379	0.348887	0.075222	0.172644	0.04851	0.042006	0.099754	0.038485	0.005794	0.011697	0.696571	0.087657	0.002787	0.144536	0.022834	0
3.193	0.575874	0.350476	0.077123	0.176372	0.049803	0.04228	0.100697	0.039156	0.005834	0.011756	0.702821	0.089519	0.002734	0.14724	0.022766	0
3.1935	0.577942	0.352051	0.079049	0.180139	0.051129	0.042573	0.101653	0.039833	0.005875	0.011818	0.709078	0.091397	0.002681	0.149969	0.022698	0
3.194	0.579993	0.353611	0.081002	0.183945	0.052488	0.042886	0.102624	0.040519	0.005918	0.011881	0.715341	0.093291	0.00263	0.152722	0.022629	0
3.1945	0.582028	0.355155	0.08298	0.187789	0.053882	0.043219	0.103609	0.041212	0.005962	0.011946	0.721608	0.0952	0.002579	0.155498	0.022561	0
3.195	0.584047	0.35668	0.084984	0.191671	0.055309	0.043572	0.104607	0.041912	0.006007	0.012013	0.727879	0.097123	0.002529	0.158296	0.022493	0
3.1955	0.586049	0.358187	0.087013	0.19559	0.056771	0.043948	0.105618	0.04262	0.006054	0.012081	0.734152	0.09906	0.002481	0.161115	0.022426	0
3.196	0.588035	0.359672	0.089068	0.199545	0.058267	0.044345	0.106642	0.043335	0.006102	0.012151	0.740427	0.10101	0.002433	0.163955	0.022361	0
3.1965	0.590006	0.361135	0.091147	0.203535	0.059798	0.044765	0.107677	0.044058	0.006151	0.012224	0.746701	0.102974	0.002387	0.166813	0.022297	0
3.197	0.591961	0.362575	0.093252	0.207559	0.061364	0.045209	0.108725	0.044788	0.006201	0.012298	0.752974	0.104949	0.002343	0.16969	0.022236	0
3.1975	0.593901	0.36399	0.09538	0.211617	0.062965	0.045677	0.109784	0.045525	0.006252	0.012373	0.759244	0.106936	0.0023	0.172585	0.022177	0
3.198	0.595826	0.365379	0.097533	0.215707	0.064601	0.046169	0.110853	0.04627	0.006305	0.012451	0.76551	0.108934	0.002259	0.175495	0.022122	0
3.1985	0.597736	0.366741	0.099709	0.21983	0.066273	0.046688	0.111932	0.047022	0.00636	0.012531	0.77177	0.110942	0.00222	0.178422	0.02207	0
3.199	0.599631	0.368074	0.101909	0.223983	0.06798	0.047232	0.113022	0.047781	0.006415	0.012612	0.778022	0.11296	0.002183	0.181363	0.022022	0
3.1995	0.60151	0.369377	0.104132	0.228166	0.069722	0.047804	0.11412	0.048547	0.006472	0.012695	0.784263	0.114987	0.002149	0.184317	0.021979	0
3.2	0.603374	0.37065	0.106377	0.232379	0.071501	0.048403	0.115226	0.04932	0.00653	0.01278	0.790492	0.117022	0.002116	0.187284	0.02194	0
3.2005	0.605221	0.37189	0.108644	0.236621	0.073315	0.04903	0.116341	0.050101	0.006589	0.012866	0.796705	0.119065	0.002087	0.190262	0.021908	0
3.201	0.60705	0.373097	0.110934	0.24089	0.075166	0.049687	0.117462	0.050888	0.00665	0.012955	0.8029	0.121115	0.00206	0.19325	0.021881	0
3.2015	0.608862	0.374271	0.113244	0.245187	0.077053	0.050374	0.11859	0.051682	0.006712	0.013045	0.809073	0.123171	0.002035	0.196247	0.021861	0
3.202	0.610654	0.375409	0.115576	0.249509	0.078977	0.051091	0.119724	0.052483	0.006775	0.013137	0.815222	0.125233	0.002014	0.199251	0.021848	0
3.2025	0.612427	0.376512	0.117928	0.253857	0.080937	0.051839	0.120862	0.05329	0.00684	0.013231	0.821343	0.127299	0.001996	0.202262	0.021842	0.000159
3.203	0.614177	0.377577	0.120299	0.258229	0.082935	0.052619	0.122005	0.054104	0.006906	0.013326	0.827431	0.12937	0.001981	0.205278	0.021845	0.000339
3.2035	0.615906	0.378606	0.12269	0.262624	0.084969	0.053432	0.123151	0.054924	0.006974	0.013423	0.833484	0.131443	0.001969	0.208298	0.021856	0.000528
3.204	0.61761	0.379595	0.1251	0.267042	0.087041	0.054278	0.1243	0.055751	0.007042	0.013522	0.839498	0.133519	0.001961	0.21132	0.021876	0.000728
3.2045	0.619289	0.380546	0.127527	0.271481	0.089151	0.055159	0.125451	0.056583	0.007112	0.013622	0.845467	0.135596	0.001957	0.214344	0.021906	0.000939
3.205	0.620941	0.381457	0.129972	0.275942	0.091298	0.056073	0.126603	0.057422	0.007183	0.013724	0.851388	0.137673	0.001956	0.217369	0.021946	0.001162
3.2055	0.622565	0.382328	0.132434	0.280421	0.093484	0.057023	0.127755	0.058266	0.007256	0.013827	0.857256	0.13975	0.00196	0.220393	0.021996	0.001395
3.206	0.624158	0.383158	0.134911	0.28492	0.095708	0.058009	0.128906	0.059116	0.00733	0.013932	0.863066	0.141827	0.001967	0.223416	0.022057	0.001641
3.2065	0.625719	0.383947	0.137404	0.289435	0.097972	0.059031	0.130056	0.059972	0.007405	0.014038	0.868815	0.143901	0.001979	0.226435	0.02213	0.001899
3.207	0.627246	0.384694	0.139911	0.293968	0.100276	0.060091	0.131204	0.060833	0.007481	0.014146	0.874496	0.145972	0.001995	0.22945	0.022214	0.002169
3.2075	0.628736	0.385399	0.142432	0.298515	0.102621	0.061188	0.132348	0.061699	0.007559	0.014255	0.880105	0.148039	0.002016	0.232461	0.022311	0.002451
3.208	0.630187	0.386059	0.144966	0.303076	0.105007	0.062324	0.133489	0.06257	0.007638	0.014365	0.885636	0.150101	0.002042	0.235465	0.022421	0.002747
3.2085	0.631597	0.386676	0.147512	0.30765	0.107434	0.063499	0.134624	0.063446	0.007718	0.014477	0.891084	0.152158	0.002072	0.238462	0.022544	0.003056
3.209	0.632964	0.387247	0.15007	0.312236	0.109904	0.064713	0.135753	0.064327	0.0078	0.01459	0.896444	0.154207	0.002108	0.241451	0.02268	0.003378
3.2095	0.634286	0.387772	0.152637	0.316832	0.112417	0.065968	0.136876	0.065212	0.007882	0.014704	0.901709	0.156249	0.002148	0.24443	0.022831	0.003715
3.21	0.63556	0.38825	0.155215	0.321437	0.114973	0.067264	0.13799	0.066101	0.007967	0.014819	0.906874	0.158282	0.002194	0.247399	0.022997	0.004065
3.2105	0.636786	0.38868	0.157801	0.326049	0.117573	0.068601	0.139096	0.066995	0.008052	0.014935	0.911935	0.160304	0.002246	0.250356	0.023177	0.00443
3.211	0.637962	0.38906	0.160396	0.330666	0.120219	0.069981	0.140191	0.067893	0.008139	0.015052	0.916886	0.162316	0.002303	0.253301	0.023373	0.00481
3.2115	0.639086	0.38939	0.162997	0.335287	0.122909	0.071403	0.141276	0.068795	0.008227	0.01517	0.921724	0.164315	0.002366	0.256232	0.023585	0.005204
3.212	0.640159	0.38967	0.165605	0.339911	0.125646	0.072868	0.142348	0.0697	0.008317	0.015289	0.926445	0.166301	0.002435	0.25915	0.023814	0.005615
3.2125	0.64118	0.389899	0.168218	0.344535	0.128429	0.074377	0.143408	0.07061	0.008408	0.015409	0.931045	0.168273	0.00251	0.262054	0.024059	0.00604
3.213	0.642147	0.390077	0.170835	0.349156	0.131259	0.075931	0.144452	0.071522	0.0085	0.01553	0.935521	0.17023	0.002591	0.264943	0.024322	0.006482
3.2135	0.643061	0.390203	0.173456	0.353775	0.134138	0.077529	0.145482	0.072439	0.008594	0.015651	0.93987	0.172171	0.002679	0.267818	0.024603	0.00694
3.214	0.643921	0.390279	0.176079	0.358388	0.137065	0.079172	0.146494	0.073359	0.00869	0.015773	0.944087	0.174094	0.002773	0.270679	0.024903	0.007415
3.2145	0.644725	0.390303	0.178704	0.362993	0.140042	0.080861	0.147489	0.074282	0.008787	0.015896	0.948171	0.176	0.002874	0.273525	0.025221	0.007907
3.215	0.645473	0.390277	0.181329	0.367589	0.143069	0.082596	0.148464	0.075208	0.008886	0.016019	0.952116	0.177886	0.002982	0.276358	0.025559	0.008416
3.2155	0.646164	0.3902	0.183952	0.372174	0.146147	0.084378	0.14942	0.076137	0.008986	0.016143	0.955922	0.179753	0.003097	0.279175	0.025917	0.008942
3.216	0.646797	0.390073	0.186574	0.376747	0.149277	0.086207	0.150354	0.07707	0.009089	0.016267	0.959585	0.181599	0.00322	0.281979	0.026295	0.009487
3.2165	0.64737	0.389895	0.189193	0.381304	0.15246	0.088083	0.151267	0.078005	0.009193	0.016391	0.963103	0.183423	0.003349	0.284767	0.026694	0.010049
3.217	0.647882	0.389668	0.191808	0.385845	0.155697	0.090008	0.152157	0.078943	0.009299	0.016516	0.966474	0.185224	0.003487	0.287542	0.027115	0.010631
3.2175	0.648332	0.389391	0.194417	0.390368	0.158988	0.091981	0.153024	0.079885	0.009407	0.016641	0.969695	0.187003	0.003632	0.290302	0.027558	0.011231
3.218	0.648717	0.389065	0.197021	0.39487	0.162335	0.094002	0.153867	0.08083	0.009518	0.016766	0.972764	0.188759	0.003784	0.293047	0.028022	0.01185
3.2185	0.649037	0.38869	0.199617	0.399351	0.165737	0.096072	0.154685	0.081778	0.00963	0.016892	0.975681	0.190491	0.003945	0.295778	0.02851	0.012489
3.219	0.64929	0.388268	0.202206	0.403807	0.169197	0.098192	0.155478	0.08273	0.009745	0.017018	0.978442	0.1922	0.004115	0.298494	0.029021	0.013148
3.2195	0.649475	0.3878	0.204785	0.408239	0.172714	0.100361	0.156245	0.083686	0.009862	0.017144	0.981046	0.193886	0.004292	0.301196	0.029555	0.013828
3.22	0.64959	0.387286	0.207355	0.412645	0.17629	0.102581	0.156985	0.084645	0.009981	0.01727	0.983491	0.19555	0.004479	0.303883	0.030114	0.014528
3.2205	0.649635	0.386727	0.209914	0.417024	0.179925	0.10485	0.157697	0.085609	0.010103	0.017396	0.985776	0.197191	0.004674	0.306555	0.030697	0.015249
3.221	0.649607	0.386124	0.212462	0.421374	0.183619	0.10717	0.158381	0.086577	0.010228	0.017522	0.987899	0.198811	0.004878	0.309212	0.031306	0.015991
3.2215	0.649506	0.385479	0.214998	0.425696	0.187374	0.10954	0.159036	0.08755	0.010356	0.017648	0.989857	0.20041	0.005091	0.311853	0.031939	0.016754
3.222	0.649329	0.384792	0.217521	0.429989	0.19119	0.111961	0.159662	0.088527	0.010486	0.017775	0.99165	0.201988	0.005313	0.314479	0.032599	0.01754
3.2225	0.649074	0.384064	0.22003	0.434252	0.195068	0.114432	0.160257	0.08951	0.010619	0.017901	0.993276	0.203546	0.005545	0.31709	0.033285	0.018348
3.223	0.648741	0.383297	0.222526	0.438486	0.199008	0.116954	0.160822	0.090498	0.010756	0.018028	0.994734	0.205085	0.005787	0.319684	0.033998	0.019179
3.2235	0.648328	0.382492	0.225007	0.442692	0.203011	0.119528	0.161355	0.091492	0.010896	0.018154	0.996025	0.206606	0.006039	0.322261	0.034737	0.020033
3.224	0.647833	0.381648	0.227473	0.446869	0.207077	0.122152	0.161857	0.092493	0.011039	0.01828	0.997147	0.20811	0.0063	0.324822	0.035505	0.02091
3.2245	0.647254	0.380766	0.229925	0.451019	0.211206	0.124827	0.162327	0.093501	0.011186	0.018406	0.9981	0.209598	0.006572	0.327364	0.0363	0.021811
3.225	0.646589	0.379848	0.232362	0.455143	0.2154	0.127553	0.162766	0.094516	0.011336	0.018532	0.998885	0.211073	0.006855	0.329889	0.037124	0.022736
3.2255	0.645837	0.378894	0.234783	0.45924	0.219658	0.130329	0.163172	0.095538	0.01149	0.018658	0.999501	0.212535	0.007148	0.332395	0.037977	0.023685
3.226	0.644996	0.377904	0.237189	0.463312	0.223981	0.133156	0.163547	0.096569	0.011647	0.018784	0.999948	0.213987	0.007452	0.334881	0.038859	0.02466
3.2265	0.644065	0.376878	0.23958	0.467358	0.228369	0.136034	0.16389	0.097608	0.011809	0.018909	1.000225	0.215429	0.007766	0.337347	0.03977	0.025659
3.227	0.643043	0.375819	0.241954	0.47138	0.232822	0.138961	0.164202	0.098656	0.011975	0.019034	1.000331	0.216864	0.008093	0.339791	0.040712	0.026684
3.2275	0.64193	0.374725	0.244312	0.475377	0.237341	0.141939	0.164483	0.099712	0.012144	0.01916	1.000268	0.218293	0.00843	0.342213	0.041683	0.027734
3.228	0.640724	0.373599	0.246653	0.479351	0.241925	0.144966	0.164734	0.100779	0.012319	0.019285	1.000035	0.219717	0.008779	0.344612	0.042686	0.028811
3.2285	0.639425	0.372441	0.248976	0.483301	0.246574	0.148043	0.164955	0.101855	0.012497	0.01941	0.999631	0.221139	0.00914	0.346987	0.043719	0.029914
3.229	0.638034	0.371254	0.251281	0.487227	0.25129	0.151168	0.165145	0.102942	0.01268	0.019535	0.999056	0.22256	0.009513	0.349336	0.044784	0.031044
3.2295	0.63655	0.370038	0.253568	0.491129	0.256071	0.154342	0.165307	0.104039	0.012868	0.01966	0.998311	0.223982	0.009899	0.35166	0.04588	0.032201
3.23	0.634973	0.368795	0.255835	0.495006	0.260919	0.157564	0.165439	0.105147	0.013061	0.019785	0.997396	0.225406	0.010296	0.353956	0.047008	0.033386
3.2305	0.633302	0.367526	0.258083	0.49886	0.265832	0.160834	0.165544	0.106267	0.013259	0.019911	0.996309	0.226835	0.010707	0.356224	0.048169	0.034598
3.231	0.631538	0.366234	0.26031	0.502689	0.270811	0.164151	0.165622	0.107399	0.013462	0.020036	0.995051	0.22827	0.01113	0.358463	0.049361	0.035838
3.2315	0.62968	0.364919	0.262518	0.506493	0.275857	0.167514	0.165674	0.108543	0.01367	0.020162	0.993622	0.229713	0.011566	0.360671	0.050587	0.037106
3.232	0.627727	0.363583	0.264706	0.510272	0.28097	0.170924	0.165701	0.1097	0.013884	0.020288	0.992023	0.231165	0.012016	0.362849	0.051846	0.038403
3.2325	0.625679	0.362227	0.266874	0.514026	0.286149	0.17438	0.165705	0.110869	0.014103	0.020414	0.990252	0.232628	0.012478	0.364993	0.053138	0.039729
3.233	0.623535	0.360854	0.269023	0.517755	0.291394	0.177881	0.165686	0.112053	0.014327	0.020541	0.98831	0.234103	0.012955	0.367104	0.054464	0.041083
3.2335	0.621295	0.359463	0.271153	0.521457	0.296706	0.181426	0.165645	0.11325	0.014557	0.020668	0.986196	0.235592	0.013445	0.369181	0.055823	0.042467
3.234	0.618959	0.358057	0.273263	0.525133	0.302085	0.185015	0.165583	0.114461	0.014793	0.020796	0.98391	0.237097	0.013949	0.371223	0.057217	0.043881
3.2345	0.616528	0.356637	0.275355	0.528781	0.30753	0.188647	0.165502	0.115687	0.015035	0.020924	0.981451	0.238618	0.014468	0.373228	0.058645	0.045324
3.235	0.614003	0.355204	0.277429	0.532401	0.313041	0.192321	0.165402	0.116927	0.015283	0.021052	0.97882	0.240158	0.015	0.375195	0.060107	0.046797
3.2355	0.611385	0.353758	0.279486	0.535992	0.318617	0.196037	0.165284	0.118183	0.015538	0.021181	0.976016	0.241718	0.015548	0.377125	0.061603	0.0483
3.236	0.608676	0.352302	0.281526	0.539553	0.324259	0.199794	0.165149	0.119453	0.015798	0.021311	0.97304	0.243299	0.01611	0.379016	0.063135	0.049834
3.2365	0.605878	0.350836	0.28355	0.543084	0.329966	0.203591	0.164997	0.12074	0.016065	0.021442	0.969893	0.244903	0.016686	0.380867	0.064702	0.051398
3.237	0.602992	0.34936	0.285558	0.546582	0.335737	0.207428	0.164831	0.122042	0.016338	0.021574	0.966576	0.246531	0.017278	0.382679	0.066304	0.052994
3.2375	0.600022	0.347876	0.287551	0.550047	0.341571	0.211303	0.164649	0.12336	0.016617	0.021706	0.963091	0.248184	0.017886	0.384451	0.067941	0.05462
3.238	0.59697	0.346385	0.28953	0.553478	0.347468	0.215215	0.164454	0.124695	0.016904	0.02184	0.95944	0.249863	0.018508	0.386181	0.069613	0.056277
3.2385	0.593837	0.344886	0.291495	0.556874	0.353427	0.219164	0.164245	0.126047	0.017197	0.021975	0.955623	0.251571	0.019146	0.387871	0.071322	0.057966
3.239	0.590627	0.343382	0.293446	0.560233	0.359447	0.223149	0.164023	0.127416	0.017496	0.02211	0.951645	0.253307	0.0198	0.389518	0.073066	0.059685
3.2395	0.587341	0.341871	0.295385	0.563555	0.365527	0.227169	0.163788	0.128803	0.017803	0.022247	0.947506	0.255074	0.02047	0.391123	0.074846	0.061437
3.24	0.583984	0.340355	0.297312	0.566838	0.371666	0.231222	0.163543	0.130208	0.018117	0.022385	0.94321	0.256871	0.021156	0.392684	0.076662	0.06322
3.2405	0.580557	0.338834	0.299226	0.570081	0.377863	0.235308	0.163285	0.131632	0.018437	0.022524	0.93876	0.258701	0.021858	0.394203	0.078514	0.065035
3.241	0.577064	0.337308	0.301129	0.573281	0.384117	0.239426	0.163017	0.133075	0.018765	0.022665	0.934159	0.260563	0.022576	0.395678	0.080403	0.066881
3.2415	0.573508	0.335778	0.30302	0.576438	0.390426	0.243574	0.162739	0.134537	0.0191	0.022806	0.92941	0.26246	0.023311	0.397108	0.082327	0.06876
3.242	0.569893	0.334244	0.3049	0.57955	0.396789	0.247751	0.162451	0.136019	0.019442	0.022949	0.924515	0.264391	0.024062	0.398493	0.084288	0.07067
3.2425	0.56622	0.332707	0.306769	0.582615	0.403204	0.251956	0.162153	0.137521	0.019792	0.023094	0.919478	0.266357	0.02483	0.399832	0.086285	0.072612
3.243	0.562494	0.331166	0.308628	0.585632	0.40967	0.256188	0.161846	0.139044	0.020149	0.023239	0.914302	0.26836	0.025614	0.401125	0.088319	0.074586
3.2435	0.558717	0.329623	0.310477	0.588599	0.416185	0.260445	0.16153	0.140589	0.020513	0.023386	0.90899	0.270399	0.026416	0.402372	0.090388	0.076592
3.244	0.554893	0.328076	0.312316	0.591515	0.422748	0.264726	0.161205	0.142156	0.020885	0.023535	0.903543	0.272476	0.027235	0.403571	0.092494	0.07863
3.2445	0.551023	0.326528	0.314146	0.594379	0.429357	0.269029	0.160873	0.143745	0.021265	0.023685	0.897966	0.274591	0.02807	0.404723	0.094636	0.080701
3.245	0.547111	0.324977	0.315967	0.597189	0.436009	0.273354	0.160534	0.145358	0.021652	0.023836	0.892261	0.276745	0.028923	0.405826	0.096814	0.082803
3.2455	0.543161	0.323423	0.31778	0.599945	0.442703	0.277699	0.160188	0.146993	0.022048	0.023989	0.886431	0.278938	0.029793	0.406879	0.099029	0.084937
3.246	0.539173	0.321866	0.319585	0.602644	0.449437	0.282062	0.159835	0.148653	0.022451	0.024143	0.88048	0.28117	0.03068	0.407882	0.101279	0.087103
3.2465	0.535152	0.320307	0.321382	0.605287	0.456208	0.286443	0.159477	0.150336	0.022861	0.024299	0.874409	0.283442	0.031585	0.408835	0.103566	0.089301
3.247	0.531099	0.318744	0.323172	0.607872	0.463015	0.29084	0.159114	0.152045	0.02328	0.024456	0.868222	0.285755	0.032507	0.409735	0.105888	0.091531
3.2475	0.527016	0.317179	0.324956	0.610397	0.469855	0.295251	0.158746	0.153778	0.023707	0.024615	0.861922	0.288108	0.033447	0.410584	0.108246	0.093793
3.248	0.522906	0.315611	0.326733	0.612862	0.476726	0.299676	0.158373	0.155537	0.024141	0.024775	0.855511	0.290501	0.034404	0.411379	0.11064	0.096086
3.2485	0.518772	0.314039	0.328505	0.615265	0.483624	0.304114	0.157997	0.157322	0.024584	0.024937	0.848993	0.292935	0.035379	0.41212	0.113068	0.098411
3.249	0.514614	0.312464	0.330271	0.617604	0.490549	0.308562	0.157617	0.159132	0.025035	0.0251	0.842372	0.295409	0.036371	0.412807	0.115532	0.100768
3.2495	0.510434	0.310886	0.332032	0.619878	0.497496	0.313019	0.157234	0.160969	0.025493	0.025265	0.835651	0.297924	0.037381	0.413437	0.118031	0.103155
3.25	0.506235	0.309304	0.333789	0.622087	0.504463	0.317485	0.156848	0.162832	0.02596	0.025431	0.828835	0.300479	0.038408	0.41401	0.120564	0.105574
3.2505	0.502019	0.30772	0.335541	0.62423	0.511447	0.321957	0.15646	0.164721	0.026434	0.025599	0.821927	0.303076	0.039453	0.414525	0.123132	0.108023
3.251	0.497786	0.306133	0.337288	0.626308	0.518444	0.326433	0.15607	0.166638	0.026917	0.025768	0.814931	0.305712	0.040515	0.414979	0.125733	0.110503
3.2515	0.49354	0.304542	0.339032	0.628322	0.525452	0.330913	0.155678	0.16858	0.027407	0.025938	0.807853	0.308389	0.041595	0.415373	0.128367	0.113014
3.252	0.489282	0.302948	0.340772	0.630272	0.532467	0.335394	0.155284	0.170549	0.027906	0.02611	0.800695	0.311106	0.042692	0.415703	0.131035	0.115554
3.2525	0.485015	0.301352	0.34251	0.63216	0.539486	0.339876	0.15489	0.172545	0.028413	0.026283	0.793462	0.313863	0.043807	0.41597	0.133735	0.118124
3.253	0.48074	0.299752	0.344245	0.633985	0.546505	0.344356	0.154495	0.174567	0.028927	0.026458	0.786158	0.31666	0.044939	0.416172	0.136466	0.120724
3.2535	0.476461	0.29815	0.345978	0.635748	0.55352	0.348833	0.1541	0.176616	0.02945	0.026634	0.778788	0.319496	0.046088	0.416308	0.139229	0.123353
3.254	0.472179	0.296546	0.347711	0.637451	0.560528	0.353305	0.153705	0.178691	0.02998	0.026812	0.771357	0.322371	0.047254	0.416378	0.142023	0.12601
3.2545	0.467897	0.29494	0.349443	0.639095	0.567525	0.357771	0.153311	0.180793	0.030519	0.02699	0.763869	0.325285	0.048438	0.416379	0.144847	0.128696
3.255	0.463618	0.293333	0.351176	0.64068	0.574507	0.362229	0.152917	0.18292	0.031065	0.027171	0.756327	0.328236	0.049638	0.416311	0.1477	0.13141
3.2555	0.459343	0.291726	0.352909	0.642209	0.581472	0.366679	0.152525	0.185074	0.031619	0.027352	0.748738	0.331224	0.050856	0.416173	0.150582	0.134151
3.256	0.455074	0.29012	0.354644	0.643682	0.588415	0.371118	0.152134	0.187253	0.032182	0.027535	0.741106	0.334249	0.05209	0.415965	0.153492	0.13692
3.2565	0.450815	0.288516	0.35638	0.645102	0.595331	0.375547	0.151744	0.189458	0.032752	0.02772	0.733435	0.33731	0.053341	0.415684	0.156428	0.139714
3.257	0.446566	0.286916	0.358118	0.646469	0.602219	0.379964	0.151357	0.191688	0.033329	0.027905	0.72573	0.340407	0.054608	0.415331	0.159391	0.142535
3.2575	0.44233	0.285319	0.359858	0.647784	0.609073	0.384367	0.150971	0.193944	0.033915	0.028092	0.717995	0.343538	0.055892	0.414905	0.16238	0.145382
3.258	0.438108	0.283727	0.361602	0.649048	0.615891	0.388757	0.150588	0.196224	0.034508	0.02828	0.710234	0.346703	0.057192	0.414406	0.165393	0.148254
3.2585	0.433903	0.282141	0.36335	0.650262	0.622669	0.393132	0.150207	0.198528	0.035109	0.028469	0.702451	0.349901	0.058508	0.413832	0.168429	0.151151
3.259	0.429715	0.280563	0.365102	0.651427	0.629404	0.397491	0.14983	0.200857	0.035717	0.02866	0.69465	0.353132	0.05984	0.413183	0.171487	0.154072
3.2595	0.425547	0.278992	0.36686	0.652542	0.636093	0.401834	0.149455	0.203209	0.036333	0.028851	0.686834	0.356394	0.061187	0.41246	0.174568	0.157017
3.26	0.421399	0.27743	0.368623	0.653609	0.642733	0.406161	0.149084	0.205584	0.036956	0.029043	0.679006	0.359688	0.06255	0.411661	0.177668	0.159985
3.2605	0.417273	0.275878	0.370393	0.654627	0.649321	0.410469	0.148717	0.207982	0.037586	0.029237	0.671171	0.36301	0.063927	0.410787	0.180789	0.162976
3.261	0.41317	0.274336	0.372171	0.655597	0.655852	0.414759	0.148354	0.210402	0.038224	0.029431	0.663331	0.366362	0.06532	0.409837	0.183928	0.165989
3.2615	0.409091	0.272805	0.373957	0.656518	0.662323	0.419029	0.147994	0.212844	0.038869	0.029626	0.655489	0.369741	0.066727	0.408811	0.187084	0.169024
3.262	0.405038	0.271285	0.375752	0.657391	0.668731	0.423279	0.147639	0.215307	0.03952	0.029821	0.647648	0.373146	0.068148	0.407711	0.190257	0.172079
3.2625	0.401011	0.269779	0.377557	0.658214	0.675072	0.427508	0.147287	0.217791	0.040178	0.030018	0.63981	0.376576	0.069584	0.406537	0.193444	0.175154
3.263	0.397013	0.268285	0.379373	0.658989	0.681341	0.431715	0.14694	0.220297	0.040843	0.030215	0.631979	0.38003	0.071033	0.40529	0.196646	0.178249
3.2635	0.393043	0.266805	0.3812	0.659713	0.687534	0.435898	0.146598	0.222822	0.041515	0.030413	0.624158	0.383507	0.072495	0.403972	0.199861	0.181363
3.264	0.389104	0.265339	0.383039	0.660386	0.693647	0.440058	0.146259	0.225368	0.042192	0.030611	0.616348	0.387004	0.07397	0.402583	0.203087	0.184495
3.2645	0.385196	0.263888	0.384891	0.661007	0.699675	0.444194	0.145925	0.227933	0.042876	0.03081	0.608553	0.39052	0.075458	0.401126	0.206323	0.187644
3.265	0.381321	0.262452	0.386756	0.661577	0.705615	0.448304	0.145596	0.230518	0.043566	0.031009	0.600775	0.394053	0.076958	0.399601	0.209569	0.19081
3.2655	0.37748	0.261032	0.388635	0.662092	0.711462	0.452388	0.145271	0.233121	0.044262	0.031208	0.593016	0.397603	0.07847	0.39801	0.212822	0.193991
3.266	0.373673	0.259627	0.390529	0.662554	0.717211	0.456446	0.144949	0.235742	0.044964	0.031407	0.585279	0.401166	0.079994	0.396357	0.216082	0.197186
3.2665	0.369903	0.258238	0.392437	0.662959	0.72286	0.460476	0.144633	0.23838	0.045671	0.031607	0.577566	0.40474	0.081529	0.394642	0.219348	0.200395
3.267	0.366168	0.256866	0.394361	0.663308	0.728404	0.464477	0.14432	0.241036	0.046384	0.031806	0.569878	0.408325	0.083074	0.392869	0.222618	0.203617
3.2675	0.362471	0.255509	0.3963	0.663599	0.733839	0.468448	0.14401	0.243708	0.047102	0.032005	0.562218	0.411917	0.08463	0.391039	0.225891	0.20685
3.268	0.358813	0.254169	0.398256	0.663829	0.73916	0.472389	0.143705	0.246396	0.047824	0.032204	0.554587	0.415516	0.086195	0.389155	0.229167	0.210093
3.2685	0.355193	0.252846	0.40023	0.663999	0.744363	0.476297	0.143403	0.249099	0.048552	0.032403	0.546987	0.419118	0.087771	0.387218	0.232443	0.213345
3.269	0.351612	0.251538	0.40222	0.664108	0.749445	0.480174	0.143104	0.251816	0.049284	0.032601	0.53942	0.422722	0.089355	0.385231	0.23572	0.216606
3.2695	0.348071	0.250247	0.404229	0.664155	0.7544	0.484017	0.142808	0.254548	0.05002	0.032799	0.531888	0.426327	0.090947	0.383196	0.238994	0.219874
3.27	0.344571	0.248973	0.406255	0.664141	0.759226	0.487825	0.142515	0.257293	0.050761	0.032996	0.524392	0.429929	0.092548	0.381113	0.242265	0.223147
3.2705	0.341112	0.247715	0.4083	0.664066	0.763919	0.491599	0.142224	0.26005	0.051506	0.033192	0.516934	0.433527	0.094156	0.378986	0.245532	0.226426
3.271	0.337694	0.246473	0.410363	0.663933	0.768477	0.495336	0.141935	0.262818	0.052254	0.033388	0.509516	0.437119	0.095771	0.376815	0.248793	0.229708
3.2715	0.334318	0.245249	0.412445	0.66374	0.772897	0.499035	0.141649	0.265597	0.053006	0.033583	0.502141	0.440703	0.097392	0.374602	0.252047	0.232992
3.272	0.330986	0.244041	0.414546	0.663491	0.777177	0.502697	0.141364	0.268386	0.053761	0.033777	0.49481	0.444277	0.09902	0.372348	0.255291	0.236278
3.2725	0.327696	0.242851	0.416665	0.663186	0.781316	0.506318	0.14108	0.271183	0.05452	0.03397	0.487526	0.447839	0.100653	0.370055	0.258526	0.239563
3.273	0.324451	0.241678	0.418803	0.662827	0.785311	0.5099	0.140797	0.273988	0.055281	0.034162	0.480288	0.451385	0.102291	0.367724	0.26175	0.242847
3.2735	0.32125	0.240522	0.42096	0.662416	0.789163	0.513439	0.140516	0.276799	0.056045	0.034352	0.4731	0.454915	0.103934	0.365356	0.264961	0.246129
3.274	0.318095	0.239384	0.423135	0.661957	0.79287	0.516935	0.140235	0.279616	0.056811	0.034541	0.465963	0.458424	0.105581	0.362954	0.26816	0.249407
3.2745	0.314986	0.238263	0.425329	0.661452	0.796431	0.520386	0.139954	0.282438	0.057579	0.034729	0.458879	0.461912	0.107231	0.360518	0.271345	0.252679
3.275	0.311923	0.23716	0.42754	0.660903	0.799845	0.523792	0.139674	0.285264	0.058348	0.034915	0.451848	0.465375	0.108884	0.358049	0.274516	0.255945
3.2755	0.308906	0.236074	0.429769	0.660313	0.803112	0.527151	0.139394	0.288093	0.059119	0.035098	0.444873	0.468812	0.110539	0.35555	0.277672	0.259203
3.276	0.305937	0.235006	0.432016	0.659683	0.80623	0.530461	0.139113	0.290924	0.059891	0.03528	0.437955	0.47222	0.112196	0.35302	0.280812	0.262451
3.2765	0.303014	0.233954	0.43428	0.659017	0.8092	0.533722	0.138831	0.293757	0.060664	0.03546	0.431097	0.475597	0.113855	0.350462	0.283935	0.265689
3.277	0.30014	0.23292	0.436562	0.658315	0.812021	0.536931	0.138548	0.296591	0.061437	0.035637	0.424299	0.478943	0.115514	0.347877	0.28704	0.268914
3.2775	0.297313	0.231903	0.43886	0.657581	0.814695	0.540089	0.138264	0.299424	0.06221	0.035812	0.417565	0.482254	0.117173	0.345265	0.290127	0.272124
3.278	0.294535	0.230903	0.441176	0.656817	0.817224	0.543193	0.137978	0.302257	0.062982	0.035984	0.410896	0.48553	0.118832	0.342628	0.293194	0.275318
3.2785	0.291806	0.22992	0.443508	0.656025	0.81961	0.546243	0.13769	0.305087	0.063753	0.036154	0.404294	0.488769	0.120489	0.339968	0.296241	0.278495
3.279	0.289125	0.228955	0.445857	0.655207	0.821856	0.549238	0.1374	0.307915	0.064524	0.03632	0.397761	0.491969	0.122145	0.337285	0.299266	0.281652
3.2795	0.286494	0.228008	0.448222	0.654366	0.823963	0.552178	0.137108	0.310739	0.065292	0.036484	0.3913	0.495128	0.123798	0.334583	0.302269	0.284787
3.28	0.283912	0.227078	0.450603	0.653503	0.825934	0.555061	0.136813	0.31356	0.066059	0.036645	0.384911	0.498245	0.125448	0.331862	0.30525	0.2879
3.2805	0.281379	0.226166	0.452998	0.65262	0.827773	0.557886	0.136517	0.316377	0.066823	0.036803	0.378597	0.501317	0.127094	0.329124	0.308207	0.290987
3.281	0.278896	0.225272	0.455408	0.65172	0.82948	0.560653	0.136217	0.319189	0.067585	0.036958	0.37236	0.504344	0.128735	0.326371	0.31114	0.294048
3.2815	0.276462	0.224397	0.457833	0.650804	0.831058	0.563359	0.135915	0.321995	0.068344	0.03711	0.366202	0.507323	0.130371	0.323604	0.314048	0.29708
3.282	0.274078	0.223541	0.460271	0.649875	0.83251	0.566003	0.13561	0.324796	0.0691	0.037259	0.360123	0.510253	0.132001	0.320825	0.316931	0.300083
3.2825	0.271743	0.222703	0.462722	0.648935	0.833837	0.568584	0.135303	0.32759	0.069853	0.037405	0.354127	0.513133	0.133624	0.318036	0.319788	0.303053
3.283	0.269456	0.221885	0.465186	0.647985	0.835042	0.571101	0.134992	0.330378	0.070602	0.037547	0.348214	0.515961	0.135239	0.315239	0.322619	0.30599
3.2835	0.267219	0.221086	0.467664	0.647028	0.836126	0.573553	0.134679	0.333158	0.071346	0.037686	0.342387	0.518737	0.136846	0.312435	0.325423	0.308893
3.284	0.265029	0.220305	0.470154	0.646065	0.83709	0.575937	0.134362	0.335931	0.072087	0.037822	0.336647	0.521458	0.138444	0.309626	0.328198	0.311759
3.2845	0.262888	0.219545	0.472656	0.645097	0.837937	0.578253	0.134041	0.338695	0.072823	0.037954	0.330995	0.524124	0.140032	0.306814	0.330944	0.314588
3.285	0.260794	0.218803	0.475171	0.644128	0.838667	0.580498	0.133717	0.341452	0.073554	0.038083	0.325434	0.526733	0.141609	0.304002	0.33366	0.317377
3.2855	0.258747	0.21808	0.477697	0.643159	0.839281	0.582673	0.133389	0.3442	0.074281	0.038208	0.319964	0.529283	0.143176	0.301189	0.336344	0.320125
3.286	0.256747	0.217377	0.480234	0.642191	0.839781	0.584774	0.133057	0.346938	0.075002	0.03833	0.314588	0.531774	0.144731	0.298379	0.338996	0.322832
3.2865	0.254792	0.216693	0.482783	0.641227	0.840166	0.586802	0.132721	0.349667	0.075718	0.038448	0.309305	0.534205	0.146273	0.295573	0.341614	0.325495
3.287	0.252883	0.216028	0.485342	0.640268	0.840438	0.588753	0.13238	0.352385	0.076428	0.038562	0.304119	0.536573	0.147802	0.292773	0.344198	0.328115
3.2875	0.251018	0.215382	0.487912	0.639316	0.840598	0.590629	0.132034	0.355093	0.077132	0.038672	0.299029	0.53888	0.149318	0.289979	0.346745	0.330688
3.288	0.249197	0.214755	0.490492	0.638372	0.840647	0.592427	0.131684	0.35779	0.077831	0.038778	0.294037	0.541123	0.150819	0.287194	0.349254	0.333216
3.2885	0.24742	0.214148	0.493082	0.637437	0.840584	0.594147	0.131329	0.360475	0.078523	0.03888	0.289144	0.543301	0.152306	0.284418	0.351725	0.335696
3.289	0.245685	0.213559	0.495681	0.636514	0.840412	0.595789	0.130968	0.363148	0.079209	0.038978	0.284351	0.545414	0.153777	0.281654	0.354156	0.338127
3.2895	0.243991	0.212989	0.49829	0.635603	0.84013	0.597354	0.130602	0.36581	0.079888	0.039071	0.279659	0.547462	0.155232	0.278903	0.356547	0.34051
3.29	0.242338	0.212438	0.500908	0.634705	0.83974	0.598841	0.130231	0.368459	0.08056	0.039161	0.275069	0.549444	0.156671	0.276165	0.358895	0.342843
3.2905	0.240725	0.211906	0.503534	0.633823	0.839241	0.600249	0.129854	0.371095	0.081225	0.039246	0.270581	0.551361	0.158093	0.273444	0.361201	0.345126
3.291	0.23915	0.211392	0.50617	0.632957	0.838634	0.601579	0.129471	0.373718	0.081883	0.039327	0.266196	0.553212	0.159499	0.270739	0.363462	0.347359
3.2915	0.237612	0.210896	0.508814	0.632108	0.83792	0.60283	0.129082	0.376329	0.082532	0.039404	0.261916	0.554998	0.160888	0.268053	0.365679	0.349541
3.292	0.236111	0.210418	0.511466	0.631279	0.837098	0.604001	0.128687	0.378925	0.083174	0.039477	0.25774	0.55672	0.162259	0.265387	0.36785	0.351673
3.2925	0.234646	0.209958	0.514126	0.630471	0.836168	0.605093	0.128285	0.381507	0.083808	0.039546	0.253669	0.558378	0.163613	0.262741	0.369975	0.353753
3.293	0.233215	0.209515	0.516793	0.629683	0.835132	0.606103	0.127876	0.384074	0.084432	0.039611	0.249705	0.559972	0.164949	0.260117	0.372052	0.355782
3.2935	0.231818	0.209089	0.519468	0.628917	0.83399	0.607032	0.127461	0.386626	0.085048	0.039671	0.245847	0.561505	0.166267	0.257517	0.374081	0.35776
3.294	0.230455	0.20868	0.522149	0.628174	0.832741	0.607879	0.127038	0.389161	0.085655	0.039728	0.242095	0.562977	0.167566	0.25494	0.376062	0.359686
3.2945	0.229124	0.208287	0.524836	0.627454	0.831387	0.608641	0.126608	0.391678	0.086253	0.039781	0.238452	0.56439	0.168848	0.252389	0.377994	0.361561
3.295	0.227825	0.20791	0.527529	0.626757	0.829927	0.60932	0.126171	0.394178	0.086841	0.039829	0.234915	0.565747	0.17011	0.249863	0.379877	0.363384
3.2955	0.226559	0.207549	0.530227	0.626085	0.828361	0.609913	0.125726	0.396659	0.087419	0.039875	0.231487	0.567048	0.171355	0.247364	0.381709	0.365157
3.296	0.225323	0.207203	0.532928	0.625436	0.82669	0.61042	0.125275	0.39912	0.087987	0.039916	0.228168	0.568296	0.172581	0.244893	0.383491	0.366878
3.2965	0.22412	0.206873	0.535631	0.624813	0.824913	0.610841	0.124816	0.401562	0.088545	0.039954	0.224957	0.569492	0.173788	0.242449	0.385223	0.368549
3.297	0.222947	0.206557	0.538337	0.624214	0.823029	0.611174	0.12435	0.403985	0.089093	0.039989	0.221856	0.570638	0.174978	0.240035	0.386903	0.370168
3.2975	0.221804	0.206257	0.541043	0.623641	0.82104	0.61142	0.123876	0.406387	0.08963	0.04002	0.218863	0.571735	0.17615	0.237651	0.388532	0.371735
3.298	0.220692	0.20597	0.54375	0.623094	0.818943	0.611579	0.123394	0.408771	0.090158	0.040048	0.21598	0.572786	0.177305	0.235297	0.390109	0.373252
3.2985	0.21961	0.205698	0.546457	0.622573	0.816741	0.611649	0.122905	0.411134	0.090675	0.040073	0.213206	0.573791	0.178442	0.232973	0.391636	0.374716
3.299	0.218557	0.20544	0.549162	0.622078	0.814433	0.611631	0.122408	0.413479	0.091181	0.040095	0.210541	0.574753	0.179562	0.230682	0.393111	0.376129
3.2995	0.217533	0.205196	0.551866	0.621609	0.812019	0.611525	0.121903	0.415806	0.091676	0.040114	0.207985	0.575674	0.180665	0.228422	0.394536	0.377489
3.3	0.216538	0.204967	0.554568	0.621167	0.809501	0.611331	0.12139	0.418115	0.09216	0.040129	0.205539	0.576555	0.181751	0.226196	0.395912	0.378796
3.3005	0.215572	0.204751	0.557268	0.620752	0.806877	0.611048	0.120868	0.420406	0.092634	0.040142	0.203202	0.577399	0.18282	0.224003	0.397237	0.380051
3.301	0.214635	0.204548	0.559965	0.620362	0.80415	0.610676	0.120338	0.42268	0.093095	0.040151	0.200975	0.578207	0.183872	0.221844	0.398514	0.381253
3.3015	0.213727	0.20436	0.562659	0.619999	0.801319	0.610216	0.119799	0.424939	0.093546	0.040158	0.198856	0.578983	0.184907	0.21972	0.399742	0.382401
3.302	0.212847	0.204185	0.565351	0.619662	0.798385	0.609667	0.119251	0.427182	0.093984	0.040161	0.196846	0.579728	0.185926	0.217632	0.400921	0.383496
3.3025	0.211997	0.204023	0.56804	0.619351	0.795349	0.60903	0.118694	0.429411	0.09441	0.040161	0.194945	0.580444	0.186928	0.21558	0.402053	0.384538
3.303	0.211176	0.203875	0.570727	0.619067	0.792211	0.608306	0.118128	0.431629	0.094824	0.040158	0.193153	0.581134	0.187913	0.213564	0.403135	0.385526
3.3035	0.210383	0.203739	0.573411	0.618808	0.788972	0.607495	0.117553	0.433836	0.095226	0.040153	0.191469	0.5818	0.188883	0.211586	0.40417	0.38646
3.304	0.20962	0.203616	0.576093	0.618575	0.785634	0.606598	0.116969	0.436035	0.095614	0.040143	0.189892	0.582444	0.189836	0.209645	0.405158	0.38734
3.3045	0.208886	0.203506	0.578774	0.618368	0.782198	0.605617	0.116376	0.438228	0.09599	0.040131	0.188424	0.583069	0.190774	0.207743	0.406098	0.388165
3.305	0.208181	0.203408	0.581454	0.618186	0.778666	0.604551	0.115774	0.440417	0.096354	0.040116	0.187062	0.583678	0.191695	0.20588	0.406993	0.388935
3.3055	0.207506	0.203321	0.584133	0.61803	0.775038	0.603403	0.115162	0.442604	0.096704	0.040097	0.185807	0.584273	0.192602	0.204055	0.407843	0.38965
3.306	0.20686	0.203246	0.586812	0.617898	0.771317	0.602173	0.114541	0.444789	0.09704	0.040074	0.184657	0.584857	0.193492	0.20227	0.408648	0.390311
3.3065	0.206243	0.203182	0.589491	0.617789	0.767502	0.600861	0.113911	0.446976	0.097364	0.040049	0.183614	0.585434	0.194367	0.200525	0.409411	0.390917
3.307	0.205655	0.203129	0.59217	0.617705	0.763597	0.599469	0.113272	0.449165	0.097674	0.040019	0.182675	0.586004	0.195226	0.19882	0.410131	0.39147
3.3075	0.205097	0.203087	0.594849	0.617643	0.759601	0.597996	0.112623	0.451359	0.09797	0.039987	0.18184	0.586572	0.19607	0.197155	0.41081	0.391969
3.308	0.204569	0.203054	0.597527	0.617604	0.755515	0.596444	0.111965	0.453557	0.098252	0.03995	0.181109	0.587138	0.196898	0.195531	0.411448	0.392417
3.3085	0.20407	0.203032	0.600205	0.617586	0.751342	0.594812	0.111298	0.455763	0.09852	0.039911	0.18048	0.587706	0.197709	0.193947	0.412047	0.392813
3.309	0.2036	0.203019	0.602883	0.61759	0.747083	0.593102	0.110622	0.457975	0.098774	0.039867	0.179952	0.588277	0.198505	0.192403	0.412607	0.393159
3.3095	0.203159	0.203015	0.605562	0.617614	0.742737	0.591315	0.109936	0.460197	0.099013	0.03982	0.179526	0.588854	0.199284	0.1909	0.413129	0.393455
3.31	0.202748	0.203021	0.608241	0.617659	0.738308	0.589453	0.109241	0.462429	0.099237	0.039769	0.179199	0.589437	0.200046	0.189438	0.413612	0.393702
3.3105	0.202365	0.203035	0.610923	0.617723	0.733794	0.587517	0.108537	0.464671	0.099447	0.039714	0.178971	0.59003	0.200792	0.188015	0.414058	0.3939
3.311	0.202011	0.203057	0.613606	0.617807	0.729199	0.585509	0.107824	0.466925	0.099641	0.039656	0.178841	0.590632	0.201521	0.186633	0.414466	0.39405
3.3115	0.201686	0.203087	0.616291	0.617909	0.724524	0.583431	0.107102	0.469191	0.09982	0.039594	0.178807	0.591247	0.202233	0.185291	0.414838	0.394153
3.312	0.201389	0.203126	0.618978	0.618029	0.71977	0.581284	0.106372	0.471471	0.099984	0.039528	0.178869	0.591876	0.202927	0.183989	0.415172	0.394209
3.3125	0.201121	0.203172	0.621667	0.618167	0.71494	0.579071	0.105634	0.473765	0.100132	0.039459	0.179026	0.592519	0.203604	0.182728	0.415469	0.394218
3.313	0.200881	0.203225	0.624358	0.618322	0.710036	0.576792	0.104889	0.476073	0.100265	0.039386	0.179275	0.593179	0.204262	0.181506	0.415728	0.394181
3.3135	0.20067	0.203285	0.62705	0.618494	0.705059	0.57445	0.104136	0.478395	0.100382	0.039309	0.179617	0.593858	0.204901	0.180324	0.415951	0.394098
3.314	0.200488	0.203353	0.629744	0.618682	0.700011	0.572046	0.103376	0.480732	0.100483	0.039229	0.18005	0.594556	0.205522	0.179181	0.416137	0.393969
3.3145	0.200334	0.203427	0.632438	0.618885	0.694895	0.569582	0.102609	0.483085	0.100569	0.039145	0.180573	0.595275	0.206122	0.178077	0.416286	0.393795
3.315	0.20021	0.203508	0.635133	0.619103	0.689711	0.567059	0.101835	0.485452	0.100639	0.039057	0.181184	0.596016	0.206703	0.177013	0.416399	0.393574
3.3155	0.200114	0.203594	0.637827	0.619336	0.684462	0.56448	0.101055	0.487834	0.100693	0.038966	0.181883	0.596781	0.207263	0.175987	0.416475	0.393308
3.316	0.200048	0.203687	0.640521	0.619583	0.67915	0.561845	0.100268	0.490232	0.100733	0.038871	0.182669	0.59757	0.207802	0.175	0.416517	0.392996
3.3165	0.20001	0.203785	0.643214	0.619844	0.673777	0.559157	0.099476	0.492644	0.100757	0.038772	0.183539	0.598385	0.208319	0.174051	0.416522	0.392638
3.317	0.200002	0.203888	0.645905	0.620118	0.668345	0.556417	0.098678	0.495071	0.100766	0.038669	0.184494	0.599227	0.208814	0.173139	0.416492	0.392234
3.3175	0.200022	0.203996	0.648594	0.620404	0.662857	0.553627	0.097874	0.497513	0.100759	0.038562	0.185531	0.600095	0.209287	0.172264	0.416425	0.391785
3.318	0.200071	0.204108	0.65128	0.620703	0.657315	0.550787	0.097064	0.49997	0.100738	0.038452	0.186649	0.600991	0.209737	0.171426	0.416323	0.39129
3.3185	0.200149	0.204225	0.653962	0.621012	0.651722	0.547901	0.09625	0.502442	0.100701	0.038338	0.187847	0.601915	0.210162	0.170624	0.416185	0.390749
3.319	0.200255	0.204344	0.656639	0.621334	0.646081	0.544967	0.09543	0.504928	0.10065	0.038219	0.189124	0.602868	0.210564	0.169858	0.41601	0.390163
3.3195	0.20039	0.204467	0.65931	0.621666	0.640395	0.541989	0.094606	0.507427	0.100583	0.038097	0.190478	0.603848	0.210941	0.169129	0.415799	0.389531
3.32	0.200553	0.204593	0.661973	0.622009	0.634667	0.538967	0.093778	0.509941	0.100501	0.037971	0.191908	0.604857	0.211292	0.168434	0.415552	0.388854
3.3205	0.200745	0.20472	0.664628	0.622362	0.6289	0.535903	0.092945	0.512468	0.100403	0.037841	0.193412	0.605894	0.211617	0.167775	0.41527	0.38813
3.321	0.200964	0.20485	0.667274	0.622725	0.623096	0.532796	0.09211	0.515009	0.100291	0.037706	0.194989	0.606959	0.211915	0.16715	0.414951	0.38736
3.3215	0.201211	0.20498	0.669908	0.623098	0.617258	0.529649	0.091271	0.517562	0.100163	0.037568	0.196638	0.608052	0.212187	0.166559	0.414597	0.386545
3.322	0.201485	0.205111	0.672531	0.62348	0.61139	0.526463	0.090429	0.520127	0.10002	0.037426	0.198356	0.609172	0.212431	0.166003	0.414209	0.385683
3.3225	0.201786	0.205242	0.67514	0.623869	0.605492	0.523237	0.089585	0.522704	0.099862	0.037279	0.200143	0.610318	0.212648	0.165479	0.413786	0.384775
3.323	0.202115	0.205373	0.677735	0.624267	0.599569	0.519974	0.088739	0.525291	0.099689	0.037129	0.201997	0.611491	0.212836	0.164988	0.41333	0.38382
3.3235	0.202469	0.205502	0.680313	0.624672	0.593622	0.516674	0.087891	0.527889	0.0995	0.036975	0.203916	0.612689	0.212995	0.164529	0.412839	0.382818
3.324	0.20285	0.205631	0.682873	0.625084	0.587653	0.513338	0.087043	0.530496	0.099297	0.036817	0.205899	0.613911	0.213125	0.164102	0.412315	0.38177
3.3245	0.203256	0.205758	0.685413	0.625502	0.581665	0.509968	0.086193	0.533113	0.099079	0.036655	0.207944	0.615156	0.213225	0.163706	0.411758	0.380674
3.325	0.203687	0.205882	0.687932	0.625928	0.575659	0.506563	0.085342	0.535738	0.098847	0.03649	0.210049	0.616423	0.213295	0.16334	0.411168	0.379531
3.3255	0.204143	0.206003	0.690426	0.626361	0.569639	0.503126	0.084492	0.538371	0.098601	0.036321	0.212213	0.61771	0.213334	0.163003	0.410545	0.37834
3.326	0.204622	0.206121	0.692894	0.6268	0.563607	0.499655	0.083641	0.541013	0.09834	0.036149	0.214433	0.619017	0.213341	0.162696	0.409889	0.377101
3.3265	0.205126	0.206234	0.695335	0.627247	0.557563	0.496153	0.082791	0.543662	0.098066	0.035973	0.216709	0.62034	0.213317	0.162416	0.4092	0.375814
3.327	0.205653	0.206342	0.697748	0.627701	0.551511	0.492621	0.081941	0.546318	0.097779	0.035794	0.219037	0.621679	0.21326	0.162165	0.408477	0.374479
3.3275	0.206202	0.206445	0.700131	0.628162	0.545453	0.489057	0.081093	0.54898	0.097478	0.035611	0.221418	0.623031	0.213171	0.16194	0.407722	0.373096
3.328	0.206773	0.206541	0.702482	0.62863	0.53939	0.485464	0.080246	0.551648	0.097163	0.035425	0.223847	0.624395	0.21305	0.161742	0.406934	0.371665
3.3285	0.207366	0.206631	0.704801	0.629105	0.533325	0.481843	0.079401	0.554322	0.096836	0.035237	0.226324	0.625768	0.212895	0.161568	0.406113	0.370187
3.329	0.20798	0.206714	0.707085	0.629586	0.52726	0.478193	0.078558	0.557001	0.096496	0.035045	0.228846	0.627149	0.212708	0.161419	0.405258	0.368662
3.3295	0.208614	0.206789	0.709333	0.630072	0.521196	0.474517	0.077718	0.559684	0.096144	0.03485	0.231412	0.628535	0.212487	0.161293	0.40437	0.36709
3.33	0.209268	0.206856	0.711543	0.630564	0.515136	0.470815	0.076881	0.56237	0.095778	0.034652	0.234019	0.629925	0.212232	0.161191	0.403449	0.365471
3.3305	0.209941	0.206914	0.713713	0.63106	0.509081	0.467088	0.076047	0.565059	0.095401	0.034451	0.236665	0.631315	0.211944	0.16111	0.402493	0.363807
3.331	0.210631	0.206963	0.715842	0.631561	0.503034	0.463336	0.075217	0.56775	0.095012	0.034247	0.239348	0.632704	0.211621	0.16105	0.401504	0.362097
3.3315	0.211339	0.207003	0.717927	0.632065	0.496996	0.459562	0.07439	0.570441	0.094612	0.034041	0.242065	0.63409	0.211264	0.161011	0.400479	0.360344
3.332	0.212063	0.207031	0.719967	0.632573	0.49097	0.455765	0.073568	0.573133	0.0942	0.033832	0.244815	0.635469	0.210874	0.160992	0.39942	0.358547
3.3325	0.212803	0.207049	0.721958	0.633084	0.484955	0.451947	0.07275	0.575823	0.093777	0.033621	0.247595	0.636838	0.21045	0.16099	0.398325	0.356708
3.333	0.213558	0.207055	0.723898	0.633597	0.478955	0.448109	0.071938	0.578511	0.093343	0.033407	0.250402	0.638197	0.209993	0.161007	0.397194	0.354829
3.3335	0.214326	0.207048	0.725785	0.634111	0.47297	0.444251	0.07113	0.581196	0.092899	0.033192	0.253234	0.63954	0.209503	0.16104	0.396026	0.35291
3.334	0.215107	0.207028	0.727616	0.634625	0.467001	0.440375	0.070327	0.583876	0.092444	0.032974	0.256089	0.640867	0.208981	0.161089	0.39482	0.350953
3.3345	0.215901	0.206994	0.729388	0.635138	0.461049	0.436482	0.06953	0.586552	0.091979	0.032753	0.258964	0.642174	0.208427	0.161153	0.393575	0.348958
3.335	0.216705	0.206945	0.731098	0.635649	0.455117	0.432573	0.068738	0.58922	0.091505	0.032531	0.261857	0.643458	0.207841	0.161229	0.392291	0.346928
3.3355	0.21752	0.206882	0.732744	0.636157	0.449203	0.428648	0.067952	0.591882	0.091021	0.032307	0.264764	0.644716	0.207225	0.161319	0.390966	0.344862
3.336	0.218344	0.206803	0.734323	0.636662	0.44331	0.424709	0.067173	0.594534	0.090528	0.032081	0.267684	0.645946	0.206578	0.16142	0.389599	0.342763
3.3365	0.219176	0.206709	0.735832	0.637162	0.437438	0.420757	0.066399	0.597177	0.090026	0.031854	0.270614	0.647143	0.205902	0.16153	0.388191	0.340631
3.337	0.220016	0.206599	0.737268	0.637658	0.431588	0.416793	0.065632	0.599808	0.089516	0.031624	0.27355	0.648306	0.205197	0.16165	0.386738	0.338468
3.3375	0.220862	0.206473	0.738628	0.638147	0.425761	0.412817	0.064871	0.602426	0.088996	0.031394	0.276491	0.649431	0.204465	0.161777	0.385242	0.336274
3.338	0.221713	0.206331	0.739908	0.638631	0.419957	0.408831	0.064117	0.605029	0.088469	0.031161	0.279433	0.650516	0.203705	0.161911	0.3837	0.334051
3.3385	0.222568	0.206172	0.741106	0.639107	0.414178	0.404836	0.063369	0.607616	0.087933	0.030927	0.282375	0.651558	0.202918	0.16205	0.382111	0.331799
3.339	0.223426	0.205996	0.742216	0.639575	0.408424	0.400831	0.062628	0.610184	0.08739	0.030692	0.285313	0.652554	0.202106	0.162192	0.380475	0.32952
3.3395	0.224285	0.205803	0.743237	0.640034	0.402696	0.396819	0.061894	0.612732	0.086839	0.030455	0.288247	0.653503	0.201268	0.162336	0.37879	0.327215
3.34	0.225145	0.205592	0.744164	0.640482	0.396993	0.392799	0.061167	0.615257	0.08628	0.030218	0.291174	0.654399	0.200405	0.162482	0.377056	0.324884
3.3405	0.226003	0.205363	0.744995	0.640918	0.391318	0.388773	0.060446	0.617758	0.085713	0.029979	0.294091	0.655243	0.199518	0.162626	0.37527	0.322529
3.341	0.22686	0.205116	0.745726	0.641342	0.385669	0.384742	0.059732	0.620231	0.08514	0.029739	0.296997	0.656029	0.198607	0.162769	0.373433	0.320152
3.3415	0.227713	0.20485	0.746354	0.641752	0.380049	0.380706	0.059025	0.622674	0.084558	0.029498	0.29989	0.656757	0.197674	0.162908	0.371542	0.317753
3.342	0.228561	0.204567	0.746877	0.642149	0.374457	0.376666	0.058325	0.625086	0.08397	0.029256	0.302768	0.657423	0.196718	0.163041	0.369599	0.315333
3.3425	0.229405	0.204266	0.747292	0.642531	0.368895	0.372622	0.057632	0.627463	0.083374	0.029013	0.305628	0.658025	0.195741	0.163169	0.367601	0.312893
3.343	0.230242	0.203948	0.747597	0.642897	0.363362	0.368576	0.056946	0.629804	0.082772	0.028769	0.308469	0.658561	0.194742	0.163289	0.365547	0.310435
3.3435	0.231072	0.203612	0.747789	0.643246	0.357858	0.364528	0.056267	0.632108	0.082162	0.028524	0.311289	0.659029	0.193724	0.1634	0.363438	0.307958
3.344	0.231893	0.20326	0.747866	0.643577	0.352386	0.360479	0.055595	0.634372	0.081545	0.028279	0.314088	0.659424	0.192685	0.163501	0.361273	0.305464
3.3445	0.232706	0.202891	0.747826	0.643889	0.346944	0.356432	0.05493	0.636593	0.080922	0.028033	0.316864	0.659745	0.191626	0.163591	0.359049	0.302953
3.345	0.233508	0.202506	0.747665	0.64418	0.341534	0.352386	0.054273	0.638771	0.080291	0.027787	0.319616	0.659989	0.190549	0.16367	0.356768	0.300426
3.3455	0.2343	0.202106	0.747383	0.644448	0.336156	0.348345	0.053623	0.640903	0.079654	0.02754	0.322342	0.660154	0.189454	0.163736	0.354428	0.297883
3.346	0.235079	0.20169	0.746977	0.644693	0.330812	0.34431	0.05298	0.642987	0.07901	0.027293	0.325042	0.660237	0.188341	0.163788	0.35203	0.295325
3.3465	0.235845	0.201259	0.746445	0.644913	0.325502	0.340282	0.052345	0.645021	0.078358	0.027046	0.327715	0.660236	0.187211	0.163827	0.349572	0.292753
3.347	0.236597	0.200813	0.745788	0.645106	0.320227	0.336263	0.051717	0.647003	0.0777	0.026798	0.330358	0.660149	0.186064	0.163851	0.347057	0.290166
3.3475	0.237335	0.200354	0.745003	0.645271	0.314988	0.332255	0.051096	0.648931	0.077035	0.02655	0.332971	0.659973	0.184902	0.163859	0.344482	0.287565
3.348	0.238057	0.19988	0.744092	0.645407	0.309786	0.328258	0.050483	0.650802	0.076364	0.026302	0.335552	0.659705	0.183725	0.16385	0.341851	0.28495
3.3485	0.238762	0.199393	0.743052	0.645513	0.304621	0.324275	0.049878	0.652614	0.075685	0.026054	0.338101	0.659344	0.182533	0.163824	0.339162	0.282322
3.349	0.239451	0.198894	0.741886	0.645587	0.299496	0.320307	0.049281	0.654365	0.074999	0.025806	0.340615	0.658887	0.181327	0.163781	0.336416	0.27968
3.3495	0.240123	0.198382	0.740591	0.645627	0.29441	0.316355	0.048691	0.656053	0.074306	0.025557	0.343095	0.658333	0.180107	0.16372	0.333614	0.277024
3.35	0.240776	0.197858	0.73917	0.645632	0.289365	0.31242	0.048109	0.657676	0.073607	0.025309	0.345538	0.65768	0.178875	0.163639	0.330757	0.274355
3.3505	0.241411	0.197323	0.73762	0.6456	0.284361	0.308505	0.047534	0.659233	0.072901	0.025062	0.347945	0.656928	0.17763	0.163541	0.327845	0.271673
3.351	0.242028	0.196777	0.735943	0.64553	0.279399	0.30461	0.046968	0.660722	0.072189	0.024814	0.350314	0.656075	0.176372	0.163423	0.32488	0.268978
3.3515	0.242624	0.19622	0.734137	0.64542	0.274479	0.300738	0.046409	0.662143	0.07147	0.024566	0.352645	0.655119	0.175103	0.163287	0.321862	0.26627
3.352	0.243201	0.195654	0.732203	0.645269	0.269602	0.29689	0.045858	0.663493	0.070745	0.024319	0.354937	0.654061	0.173823	0.163131	0.318792	0.26355
3.3525	0.243757	0.195078	0.730142	0.645075	0.264769	0.293068	0.045315	0.664772	0.070014	0.024072	0.357189	0.652899	0.172532	0.162957	0.315674	0.260819
3.353	0.244292	0.194493	0.727953	0.644837	0.259979	0.289273	0.04478	0.665977	0.069277	0.023826	0.359401	0.651634	0.171231	0.162764	0.312508	0.258075
3.3535	0.244804	0.193899	0.725639	0.644552	0.255233	0.285508	0.044253	0.667108	0.068535	0.02358	0.361571	0.650265	0.169919	0.162553	0.309297	0.255322
3.354	0.245295	0.193296	0.723202	0.64422	0.250533	0.281774	0.043733	0.668161	0.067787	0.023334	0.363698	0.648794	0.168597	0.162323	0.306044	0.252558
3.3545	0.245762	0.192685	0.720644	0.643839	0.245877	0.278074	0.043222	0.669136	0.067034	0.023089	0.365783	0.64722	0.167266	0.162075	0.30275	0.249786
3.355	0.246206	0.192066	0.717968	0.643407	0.241267	0.274407	0.042719	0.67003	0.066275	0.022845	0.367824	0.645545	0.165926	0.161808	0.299419	0.247005
3.3555	0.246626	0.191439	0.715177	0.642922	0.236703	0.270777	0.042224	0.670841	0.065512	0.022601	0.369821	0.64377	0.164576	0.161523	0.296051	0.244218
3.356	0.247021	0.190805	0.712273	0.642383	0.232185	0.267185	0.041737	0.671567	0.064745	0.022358	0.371772	0.641896	0.163216	0.161221	0.29265	0.241423
3.3565	0.247392	0.190165	0.70926	0.641789	0.227714	0.263632	0.041259	0.672207	0.063974	0.022117	0.373678	0.639924	0.161848	0.160901	0.289216	0.238623
3.357	0.247736	0.189517	0.706139	0.641138	0.22329	0.26012	0.040789	0.672759	0.063199	0.021876	0.375538	0.637857	0.160471	0.160564	0.285754	0.235817
3.3575	0.248054	0.188862	0.702914	0.64043	0.218914	0.25665	0.040328	0.673221	0.062421	0.021636	0.37735	0.635696	0.159085	0.16021	0.282263	0.233008
3.358	0.248344	0.188201	0.699588	0.639664	0.214586	0.253224	0.039875	0.673593	0.061639	0.021397	0.379115	0.633442	0.157691	0.15984	0.278747	0.230194
3.3585	0.248607	0.187534	0.696163	0.63884	0.210307	0.249844	0.03943	0.673874	0.060856	0.02116	0.380831	0.631099	0.156289	0.159454	0.275208	0.227378
3.359	0.248841	0.186861	0.692643	0.637955	0.206077	0.246509	0.038995	0.674061	0.06007	0.020923	0.382499	0.628668	0.154879	0.159053	0.271646	0.22456
3.3595	0.249047	0.186181	0.68903	0.63701	0.201897	0.243223	0.038568	0.674155	0.059283	0.020689	0.384116	0.62615	0.153461	0.158636	0.268065	0.221741
3.36	0.249222	0.185495	0.685327	0.636004	0.197767	0.239986	0.03815	0.674153	0.058494	0.020455	0.385683	0.623548	0.152036	0.158204	0.264467	0.218922
3.3605	0.249367	0.184803	0.681537	0.634936	0.193687	0.236798	0.037741	0.674054	0.057705	0.020224	0.387198	0.620863	0.150605	0.157757	0.260853	0.216103
3.361	0.249482	0.184105	0.677662	0.633804	0.189659	0.233662	0.037342	0.673855	0.056915	0.019994	0.388661	0.618097	0.149167	0.157296	0.257226	0.213286
3.3615	0.249565	0.183401	0.673704	0.632608	0.185682	0.230578	0.036951	0.673556	0.056125	0.019766	0.39007	0.615252	0.147723	0.15682	0.253588	0.210472
3.362	0.249616	0.182691	0.669666	0.631347	0.181757	0.227547	0.036569	0.673155	0.055334	0.019539	0.391424	0.612329	0.146274	0.15633	0.24994	0.207661
3.3625	0.249634	0.181975	0.665551	0.630018	0.177885	0.224571	0.036196	0.672649	0.054545	0.019315	0.392723	0.609328	0.14482	0.155826	0.246285	0.204855
3.363	0.24962	0.181253	0.66136	0.628622	0.174065	0.221648	0.035833	0.672039	0.053756	0.019092	0.393965	0.606252	0.143361	0.155308	0.242625	0.202054
3.3635	0.249572	0.180524	0.657095	0.627156	0.170298	0.218782	0.035479	0.671321	0.052969	0.018871	0.395149	0.603101	0.141899	0.154777	0.238962	0.19926
3.364	0.249492	0.179789	0.652761	0.62562	0.166585	0.215972	0.035134	0.670496	0.052183	0.018653	0.396275	0.599877	0.140434	0.154233	0.235298	0.196473
3.3645	0.249378	0.179048	0.648358	0.624013	0.162925	0.213219	0.034799	0.669562	0.051398	0.018437	0.397343	0.596579	0.138967	0.153675	0.231634	0.193694
3.365	0.249233	0.178301	0.643891	0.622332	0.159318	0.210523	0.034472	0.668518	0.050616	0.018223	0.398351	0.59321	0.137497	0.153105	0.227973	0.190924
3.3655	0.249056	0.177547	0.639362	0.620577	0.155765	0.207886	0.034156	0.667363	0.049837	0.018012	0.399301	0.589769	0.136027	0.152523	0.224316	0.188164
3.366	0.248848	0.176789	0.634773	0.618745	0.152266	0.205307	0.033848	0.666097	0.04906	0.017803	0.400193	0.586259	0.134556	0.151927	0.220666	0.185415
3.3665	0.248609	0.176025	0.630126	0.616837	0.148821	0.202788	0.03355	0.664718	0.048286	0.017596	0.401026	0.58268	0.133086	0.15132	0.217023	0.182677
3.367	0.248341	0.175255	0.625425	0.614849	0.14543	0.200328	0.033262	0.663227	0.047516	0.017393	0.401802	0.579033	0.131616	0.1507	0.21339	0.17995
3.3675	0.248044	0.174481	0.620672	0.612782	0.142092	0.197928	0.032983	0.661622	0.046749	0.017192	0.402522	0.575317	0.130147	0.150068	0.209768	0.177236
3.368	0.247719	0.173701	0.615869	0.610634	0.138809	0.195589	0.032713	0.659905	0.045986	0.016994	0.403184	0.571536	0.12868	0.149425	0.206158	0.174535
3.3685	0.247366	0.172917	0.611017	0.608405	0.13558	0.193309	0.032453	0.658074	0.045228	0.016799	0.40379	0.567689	0.127216	0.148769	0.202562	0.171847
3.369	0.246988	0.172129	0.606118	0.606095	0.132406	0.191091	0.032203	0.65613	0.044474	0.016606	0.404341	0.563779	0.125755	0.148101	0.198982	0.169173
3.3695	0.246586	0.171336	0.601175	0.603705	0.129285	0.188933	0.031962	0.654073	0.043724	0.016417	0.404838	0.559807	0.124298	0.147422	0.195419	0.166513
3.37	0.24616	0.170538	0.596188	0.601233	0.126219	0.186836	0.031731	0.651901	0.04298	0.016231	0.405282	0.555775	0.122845	0.146731	0.191874	0.163867
3.3705	0.245714	0.169736	0.59116	0.598681	0.123207	0.1848	0.03151	0.649614	0.042242	0.016049	0.405674	0.551685	0.121398	0.146027	0.188348	0.161236
3.371	0.245247	0.168929	0.586092	0.596049	0.12025	0.182824	0.031298	0.647211	0.041508	0.015869	0.406017	0.54754	0.119955	0.145313	0.184843	0.158621
3.3715	0.244762	0.168118	0.580986	0.593338	0.117347	0.18091	0.031096	0.644692	0.040781	0.015693	0.406311	0.543339	0.118519	0.144586	0.181359	0.15602
3.372	0.244261	0.167303	0.575842	0.590547	0.114498	0.179056	0.030904	0.642055	0.04006	0.01552	0.406558	0.539087	0.11709	0.143848	0.177898	0.153436
3.3725	0.243743	0.166484	0.570664	0.587679	0.111704	0.177263	0.030722	0.639301	0.039345	0.01535	0.406759	0.534784	0.115668	0.143099	0.17446	0.150867
3.373	0.243212	0.165661	0.565451	0.584733	0.108964	0.175531	0.030549	0.63643	0.038636	0.015184	0.406915	0.530434	0.114253	0.142338	0.171047	0.148314
3.3735	0.242667	0.164835	0.560206	0.581711	0.106278	0.17386	0.030386	0.633441	0.037934	0.015021	0.407028	0.526037	0.112847	0.141567	0.16766	0.145778
3.374	0.24211	0.164005	0.554929	0.578612	0.103647	0.172249	0.030233	0.630337	0.037239	0.014862	0.407098	0.521595	0.11145	0.140783	0.164299	0.143259
3.3745	0.241543	0.163171	0.549623	0.575436	0.10107	0.170699	0.030089	0.627117	0.036551	0.014706	0.407126	0.517111	0.110062	0.139989	0.160966	0.140756
3.375	0.240965	0.162335	0.544287	0.572185	0.098547	0.16921	0.029955	0.623784	0.035869	0.014553	0.407113	0.512586	0.108683	0.139184	0.157661	0.13827
3.3755	0.240379	0.161497	0.538924	0.568858	0.096078	0.167781	0.029831	0.620337	0.035196	0.014404	0.407059	0.508022	0.107315	0.138367	0.154385	0.135801
3.376	0.239785	0.160656	0.533534	0.565456	0.093662	0.166413	0.029716	0.616779	0.034529	0.014259	0.406964	0.50342	0.105957	0.13754	0.151139	0.133349
3.3765	0.239184	0.159812	0.52812	0.561978	0.0913	0.165104	0.029611	0.613111	0.03387	0.014117	0.406831	0.49878	0.104611	0.136701	0.147924	0.130915
3.377	0.238577	0.158967	0.522681	0.558426	0.088991	0.163856	0.029516	0.609333	0.033219	0.013979	0.406657	0.494105	0.103275	0.135851	0.14474	0.128499
3.3775	0.237964	0.158119	0.51722	0.554799	0.086736	0.162668	0.02943	0.60545	0.032576	0.013845	0.406445	0.489396	0.101952	0.134991	0.141589	0.126101
3.378	0.237347	0.15727	0.511737	0.551098	0.084533	0.16154	0.029353	0.601461	0.03194	0.013714	0.406194	0.484653	0.100641	0.13412	0.13847	0.123722
3.3785	0.236727	0.15642	0.506233	0.547324	0.082382	0.160471	0.029286	0.597369	0.031313	0.013586	0.405904	0.479876	0.099342	0.133239	0.135384	0.121361
3.379	0.236103	0.155568	0.50071	0.543476	0.080283	0.159462	0.029227	0.593177	0.030693	0.013463	0.405575	0.475068	0.098057	0.132348	0.132332	0.119019
3.3795	0.235477	0.154716	0.495168	0.539557	0.078237	0.158512	0.029178	0.588886	0.030082	0.013342	0.405207	0.470229	0.096784	0.131447	0.129314	0.116695
3.38	0.23485	0.153863	0.489608	0.535565	0.076241	0.157621	0.029138	0.584499	0.029479	0.013226	0.404801	0.46536	0.095525	0.130536	0.126331	0.114391
3.3805	0.234221	0.153009	0.484031	0.531501	0.074297	0.15679	0.029107	0.58002	0.028884	0.013112	0.404355	0.460462	0.094281	0.129616	0.123384	0.112106
3.381	0.233592	0.152154	0.47844	0.527367	0.072403	0.156017	0.029084	0.575451	0.028297	0.013003	0.403869	0.455536	0.09305	0.128687	0.120472	0.109841
3.3815	0.232963	0.1513	0.472834	0.523162	0.07056	0.155303	0.02907	0.570794	0.027719	0.012897	0.403344	0.450583	0.091834	0.127749	0.117596	0.107595
3.382	0.232334	0.150446	0.467215	0.518888	0.068766	0.154647	0.029065	0.566052	0.02715	0.012794	0.402778	0.445605	0.090632	0.126802	0.114756	0.105369
3.3825	0.231706	0.149592	0.461584	0.514544	0.067021	0.154049	0.029068	0.561229	0.026589	0.012695	0.40217	0.440602	0.089446	0.125846	0.111954	0.103164
3.383	0.231079	0.148738	0.455942	0.510132	0.065326	0.15351	0.029079	0.556326	0.026036	0.0126	0.40152	0.435575	0.088275	0.124882	0.109188	0.100979
3.3835	0.230453	0.147885	0.450291	0.505653	0.063679	0.153027	0.029098	0.551347	0.025492	0.012508	0.400827	0.430526	0.087119	0.123911	0.106459	0.098816
3.384	0.229828	0.147033	0.444632	0.501107	0.06208	0.152602	0.029126	0.546294	0.024957	0.012419	0.40009	0.425455	0.085979	0.122931	0.103767	0.096673
3.3845	0.229205	0.146182	0.438968	0.496496	0.060528	0.152234	0.029161	0.541171	0.02443	0.012334	0.399308	0.420362	0.084855	0.121944	0.101114	0.094553
3.385	0.228584	0.145331	0.4333	0.491821	0.059024	0.151922	0.029204	0.535982	0.023912	0.012252	0.398479	0.41525	0.083748	0.120951	0.098497	0.092454
3.3855	0.227964	0.144482	0.42763	0.487084	0.057566	0.151667	0.029254	0.530729	0.023402	0.012174	0.397603	0.410118	0.082657	0.119951	0.095919	0.090377
3.386	0.227346	0.143633	0.42196	0.482286	0.056155	0.151467	0.029312	0.525415	0.022901	0.012098	0.396678	0.404968	0.081583	0.118945	0.093379	0.088323
3.3865	0.226729	0.142785	0.416291	0.477429	0.054789	0.151323	0.029377	0.520045	0.022409	0.012027	0.395704	0.399802	0.080526	0.117933	0.090876	0.086292
3.387	0.226115	0.141939	0.410624	0.472514	0.053468	0.151234	0.02945	0.514621	0.021925	0.011958	0.394678	0.394619	0.079486	0.116917	0.088412	0.084283
3.3875	0.225502	0.141093	0.404962	0.467543	0.052192	0.1512	0.029529	0.509146	0.02145	0.011893	0.3936	0.389423	0.078463	0.115897	0.085985	0.082297
3.388	0.22489	0.140248	0.399306	0.462517	0.050959	0.151219	0.029615	0.503623	0.020983	0.011831	0.392468	0.384215	0.077458	0.114874	0.083597	0.080335
3.3885	0.22428	0.139404	0.393656	0.457437	0.04977	0.151292	0.029708	0.498057	0.020525	0.011772	0.391281	0.378996	0.076471	0.113848	0.081247	0.078396
3.389	0.223672	0.13856	0.388015	0.452306	0.048624	0.151418	0.029808	0.49245	0.020075	0.011717	0.390038	0.373767	0.075501	0.11282	0.078935	0.076481
3.3895	0.223065	0.137717	0.382384	0.447126	0.047521	0.151596	0.029913	0.486804	0.019633	0.011664	0.388737	0.368531	0.07455	0.111791	0.07666	0.07459
3.39	0.222459	0.136874	0.376762	0.441898	0.046459	0.151825	0.030026	0.481124	0.0192	0.011614	0.387376	0.363289	0.073617	0.11076	0.074424	0.072722
3.3905	0.221854	0.136031	0.371153	0.436625	0.045438	0.152106	0.030144	0.47541	0.018776	0.011568	0.385955	0.358043	0.072702	0.109729	0.072225	0.070879
3.391	0.221249	0.135188	0.365556	0.431309	0.044457	0.152436	0.030268	0.469668	0.018359	0.011524	0.384472	0.352793	0.071806	0.108699	0.070064	0.06906
3.3915	0.220644	0.134345	0.359973	0.425952	0.043516	0.152816	0.030398	0.463898	0.017951	0.011483	0.382924	0.347542	0.070929	0.107671	0.067941	0.067266
3.392	0.220039	0.133502	0.354405	0.420556	0.042615	0.153244	0.030533	0.458104	0.01755	0.011445	0.381311	0.342292	0.07007	0.106644	0.065855	0.065496
3.3925	0.219434	0.132659	0.348854	0.415125	0.041752	0.15372	0.030674	0.452288	0.017158	0.011409	0.37963	0.337043	0.06923	0.105621	0.063806	0.063751
3.393	0.218829	0.131816	0.343321	0.409662	0.040927	0.154243	0.03082	0.446454	0.016774	0.011376	0.377881	0.331799	0.068409	0.104601	0.061794	0.06203
3.3935	0.218224	0.130972	0.337808	0.404168	0.040139	0.154812	0.030972	0.440604	0.016398	0.011346	0.376062	0.32656	0.067607	0.103586	0.059819	0.060335
3.394	0.217618	0.130129	0.332316	0.398647	0.039388	0.155425	0.031128	0.434741	0.01603	0.011319	0.374174	0.321328	0.066824	0.102577	0.057881	0.058664
3.3945	0.217013	0.129285	0.326847	0.393103	0.038673	0.156083	0.031289	0.428868	0.015669	0.011293	0.372214	0.316105	0.06606	0.101574	0.055979	0.057018
3.395	0.216409	0.128442	0.321402	0.387538	0.037993	0.156783	0.031455	0.422988	0.015316	0.011271	0.370184	0.310893	0.065315	0.100579	0.054113	0.055398
3.3955	0.215806	0.127598	0.315984	0.381954	0.037347	0.157524	0.031625	0.417103	0.01497	0.01125	0.368084	0.305694	0.064588	0.099592	0.052283	0.053802
3.396	0.215204	0.126753	0.310592	0.376356	0.036736	0.158307	0.031801	0.411216	0.014633	0.011232	0.365913	0.300509	0.063881	0.098613	0.050488	0.052232
3.3965	0.214604	0.125909	0.305229	0.370745	0.036157	0.159128	0.03198	0.405331	0.014302	0.011216	0.363672	0.295341	0.063192	0.097644	0.048729	0.050686
3.397	0.214007	0.125064	0.299896	0.365125	0.035611	0.159988	0.032164	0.399448	0.013979	0.011202	0.361362	0.290191	0.062522	0.096685	0.047005	0.049165
3.3975	0.213411	0.124218	0.294595	0.359499	0.035097	0.160884	0.032353	0.393572	0.013663	0.01119	0.358984	0.285061	0.06187	0.095737	0.045315	0.04767
3.398	0.212819	0.123372	0.289325	0.353869	0.034613	0.161816	0.032546	0.387703	0.013354	0.011181	0.356538	0.279952	0.061237	0.0948	0.04366	0.046199
3.3985	0.212231	0.122524	0.28409	0.348238	0.03416	0.162783	0.032743	0.381846	0.013052	0.011173	0.354027	0.274866	0.060623	0.093876	0.042039	0.044754
3.399	0.211648	0.121676	0.278889	0.342608	0.033736	0.163782	0.032944	0.376001	0.012757	0.011167	0.35145	0.269806	0.060026	0.092964	0.040451	0.043333
3.3995	0.21107	0.120826	0.273724	0.336984	0.033341	0.164813	0.03315	0.370171	0.012469	0.011163	0.348812	0.264771	0.059448	0.092065	0.038897	0.041938
3.4	0.210499	0.119974	0.268597	0.331366	0.032975	0.165874	0.033359	0.364358	0.012187	0.011161	0.346114	0.259764	0.058887	0.091181	0.037376	0.040567
3.4005	0.209936	0.119121	0.263508	0.325758	0.032635	0.166963	0.033573	0.358565	0.011912	0.011161	0.343358	0.254787	0.058344	0.09031	0.035887	0.03922
3.401	0.209381	0.118265	0.258459	0.320161	0.032322	0.16808	0.033791	0.352792	0.011644	0.011163	0.340547	0.24984	0.057819	0.089454	0.034431	0.037899
3.4015	0.208835	0.117407	0.253451	0.314579	0.032035	0.169223	0.034012	0.347042	0.011382	0.011166	0.337684	0.244925	0.057311	0.088614	0.033007	0.036602
3.402	0.2083	0.116548	0.248485	0.309014	0.031773	0.17039	0.034237	0.341317	0.011126	0.011171	0.334769	0.240042	0.05682	0.08779	0.031615	0.035329
3.4025	0.207775	0.115685	0.243561	0.303467	0.031536	0.17158	0.034466	0.335619	0.010877	0.011178	0.331806	0.235195	0.056346	0.086981	0.030254	0.034081
3.403	0.207262	0.114821	0.238682	0.297942	0.031322	0.172791	0.034699	0.329948	0.010634	0.011186	0.328797	0.230383	0.055888	0.08619	0.028924	0.032856
3.4035	0.206761	0.113953	0.233848	0.292439	0.031131	0.174022	0.034935	0.324307	0.010397	0.011196	0.325744	0.225607	0.055447	0.085416	0.027624	0.031656
3.404	0.206273	0.113083	0.229061	0.286963	0.030962	0.175271	0.035175	0.318697	0.010166	0.011207	0.322648	0.22087	0.055022	0.084661	0.026355	0.03048
3.4045	0.205798	0.11221	0.22432	0.281513	0.030814	0.176536	0.035418	0.313121	0.009941	0.01122	0.319511	0.216172	0.054613	0.083924	0.025116	0.029327
3.405	0.205337	0.111335	0.219626	0.276093	0.030687	0.177816	0.035664	0.307578	0.009721	0.011234	0.316337	0.211515	0.054219	0.083205	0.023907	0.028198
3.4055	0.204891	0.110457	0.214982	0.270705	0.03058	0.17911	0.035914	0.302072	0.009507	0.01125	0.313125	0.206899	0.053841	0.082507	0.022726	0.027093
3.406	0.204459	0.109577	0.210386	0.265349	0.030492	0.180415	0.036167	0.296602	0.009299	0.011268	0.309879	0.202325	0.053478	0.081828	0.021575	0.02601
3.4065	0.204042	0.108695	0.205841	0.260029	0.030421	0.18173	0.036423	0.291171	0.009097	0.011286	0.306601	0.197796	0.053129	0.08117	0.020452	0.024951
3.407	0.203641	0.107812	0.201346	0.254744	0.030368	0.183054	0.036682	0.28578	0.008899	0.011306	0.303291	0.193311	0.052795	0.080533	0.019358	0.023914
3.4075	0.203256	0.106927	0.196902	0.249498	0.030332	0.184385	0.036944	0.280429	0.008707	0.011327	0.299952	0.188871	0.052476	0.079917	0.018291	0.022901
3.408	0.202886	0.10604	0.19251	0.244292	0.030311	0.185722	0.037209	0.27512	0.008521	0.01135	0.296587	0.184478	0.05217	0.079322	0.017252	0.021909
3.4085	0.202533	0.105153	0.18817	0.239126	0.030305	0.187064	0.037477	0.269853	0.00834	0.011374	0.293195	0.180132	0.051878	0.07875	0.016239	0.02094
3.409	0.202196	0.104266	0.183882	0.234003	0.030313	0.18841	0.037748	0.264631	0.008163	0.011398	0.289781	0.175834	0.051599	0.0782	0.015254	0.019993
3.4095	0.201876	0.103378	0.179648	0.228924	0.030335	0.189757	0.038022	0.259453	0.007992	0.011424	0.286345	0.171586	0.051333	0.077672	0.014295	0.019067
3.41	0.201572	0.10249	0.175466	0.223889	0.030369	0.191105	0.038299	0.254322	0.007825	0.011451	0.28289	0.167387	0.05108	0.077167	0.013361	0.018164
3.4105	0.201285	0.101602	0.171339	0.218901	0.030415	0.192453	0.038579	0.249237	0.007664	0.01148	0.279418	0.163238	0.050839	0.076686	0.012454	0.017281
3.411	0.201015	0.100715	0.167264	0.213961	0.030472	0.1938	0.038861	0.2442	0.007507	0.011509	0.275931	0.15914	0.05061	0.076228	0.011571	0.01642
3.4115	0.200762	0.099829	0.163244	0.209068	0.03054	0.195143	0.039147	0.239211	0.007355	0.011539	0.272431	0.155094	0.050393	0.075794	0.010714	0.015579
3.412	0.200525	0.098944	0.159278	0.204225	0.030617	0.196483	0.039435	0.234271	0.007207	0.01157	0.268921	0.1511	0.050188	0.075384	0.00988	0.014759
3.4125	0.200306	0.098061	0.155366	0.199433	0.030703	0.197817	0.039725	0.229381	0.007064	0.011601	0.265402	0.147159	0.049993	0.074998	0.009071	0.01396
3.413	0.200103	0.097179	0.151508	0.194692	0.030797	0.199146	0.040019	0.224542	0.006925	0.011634	0.261877	0.143271	0.049809	0.074636	0.008285	0.01318
3.4135	0.199916	0.096299	0.147705	0.190003	0.030898	0.200467	0.040314	0.219753	0.006791	0.011667	0.258347	0.139436	0.049636	0.074298	0.007523	0.01242
3.414	0.199747	0.095421	0.143956	0.185368	0.031005	0.201782	0.040613	0.215016	0.006661	0.011701	0.254815	0.135655	0.049473	0.073986	0.006783	0.01168
3.4145	0.199593	0.094545	0.140263	0.180786	0.031119	0.203089	0.040913	0.210331	0.006535	0.011736	0.251282	0.131928	0.049319	0.073698	0.006066	0.01096
3.415	0.199456	0.093672	0.136624	0.176258	0.031237	0.204387	0.041216	0.205698	0.006413	0.011771	0.247751	0.128255	0.049175	0.073434	0.005371	0.010258
3.4155	0.199334	0.092801	0.133041	0.171786	0.031359	0.205676	0.04152	0.201118	0.006294	0.011807	0.244222	0.124637	0.04904	0.073196	0.004698	0.009575
3.416	0.199228	0.091933	0.129513	0.16737	0.031485	0.206956	0.041827	0.196591	0.00618	0.011843	0.240699	0.121074	0.048914	0.072983	0.004046	0.00891
3.4165	0.199138	0.091068	0.126041	0.16301	0.031614	0.208227	0.042136	0.192118	0.006069	0.011879	0.237183	0.117565	0.048797	0.072795	0.003415	0.008264
3.417	0.199062	0.090206	0.122624	0.158707	0.031745	0.209487	0.042446	0.187698	0.005962	0.011916	0.233674	0.114112	0.048688	0.072632	0.002804	0.007636
3.4175	0.199001	0.089347	0.119264	0.154461	0.031878	0.210737	0.042758	0.183333	0.005859	0.011954	0.230176	0.110714	0.048586	0.072495	0.002214	0.007026
3.418	0.198954	0.088492	0.115959	0.150273	0.032012	0.211977	0.043071	0.179023	0.005759	0.011991	0.226689	0.107372	0.048493	0.072383	0.001644	0.006433
3.4185	0.198921	0.08764	0.11271	0.146143	0.032147	0.213206	0.043386	0.174768	0.005662	0.012029	0.223214	0.104084	0.048406	0.072297	0.001093	0.005857
3.419	0.198901	0.086792	0.109518	0.142072	0.032281	0.214424	0.043701	0.170568	0.005569	0.012066	0.219754	0.100852	0.048327	0.072236	0.000561	0.005298
3.4195	0.198895	0.085947	0.106382	0.138059	0.032415	0.215632	0.044018	0.166424	0.005479	0.012104	0.216309	0.097675	0.048254	0.0722	4.7e-05	0.004756
3.42	0.198901	0.085106	0.103302	0.134105	0.032548	0.216829	0.044335	0.162336	0.005392	0.012142	0.21288	0.094554	0.048188	0.07219	0	0.00423
3.4205	0.19892	0.084269	0.100277	0.130211	0.032678	0.218014	0.044653	0.158304	0.005308	0.01218	0.209469	0.091487	0.048127	0.072206	0	0.00372
3.421	0.198949	0.083435	0.097309	0.126377	0.032806	0.219189	0.044971	0.154329	0.005226	0.012218	0.206078	0.088476	0.048073	0.072246	0	0.003226
3.4215	0.19899	0.082606	0.094397	0.122601	0.032932	0.220352	0.045289	0.150411	0.005148	0.012256	0.202706	0.08552	0.048024	0.072312	0	0.002748
3.422	0.199041	0.08178	0.091541	0.118886	0.033054	0.221503	0.045608	0.14655	0.005072	0.012293	0.199355	0.082618	0.04798	0.072404	0	0.002285
3.4225	0.199101	0.080959	0.08874	0.11523	0.033172	0.222642	0.045926	0.142746	0.004999	0.01233	0.196027	0.079771	0.047942	0.07252	0	0.001837
3.423	0.199171	0.080141	0.085995	0.111635	0.033286	0.223769	0.046244	0.138999	0.004928	0.012368	0.192721	0.076978	0.047907	0.072662	0	0.001404
3.4235	0.199248	0.079327	0.083305	0.108099	0.033396	0.224884	0.046562	0.13531	0.00486	0.012405	0.189439	0.07424	0.047877	0.072828	0	0.000986
3.424	0.199332	0.078518	0.08067	0.104622	0.0335	0.225987	0.04688	0.131678	0.004794	0.012441	0.186182	0.071555	0.047851	0.07302	0	0.000582
3.4245	0.199423	0.077712	0.07809	0.101206	0.033599	0.227078	0.047196	0.128104	0.00473	0.012478	0.18295	0.068924	0.047828	0.073236	0	0.000192
3.425	0.19952	0.076911	0.075565	0.097849	0.033693	0.228156	0.047513	0.124589	0.004669	0.012514	0.179745	0.066347	0.047808	0.073476	0	0
3.4255	0.199622	0.076113	0.073093	0.094552	0.03378	0.229221	0.047828	0.121131	0.00461	0.01255	0.176566	0.063823	0.047792	0.07374	0	0
3.426	0.199727	0.07532	0.070676	0.091315	0.033861	0.230274	0.048143	0.117731	0.004553	0.012586	0.173415	0.061351	0.047778	0.074029	0	0
3.4265	0.199836	0.074531	0.068311	0.088136	0.033935	0.231314	0.048456	0.114389	0.004498	0.012621	0.170293	0.058932	0.047767	0.074342	0	0
3.427	0.199947	0.073746	0.066001	0.085017	0.034003	0.23234	0.048769	0.111106	0.004445	0.012656	0.167199	0.056565	0.047758	0.074678	0	0
3.4275	0.200058	0.072965	0.063742	0.081957	0.034063	0.233353	0.04908	0.10788	0.004394	0.012691	0.164136	0.05425	0.04775	0.075037	0	0
3.428	0.20017	0.072189	0.061537	0.078955	0.034116	0.234353	0.049391	0.104712	0.004345	0.012725	0.161103	0.051986	0.047745	0.07542	0	0
3.4285	0.200282	0.071416	0.059383	0.076012	0.034162	0.235338	0.0497	0.101602	0.004298	0.012759	0.1581	0.049773	0.04774	0.075826	0	0
3.429	0.200392	0.070648	0.05728	0.073126	0.034199	0.236309	0.050008	0.09855	0.004253	0.012792	0.155129	0.047611	0.047737	0.076254	0	0
3.4295	0.200499	0.069885	0.055229	0.070299	0.034229	0.237265	0.050314	0.095555	0.004209	0.012826	0.15219	0.045499	0.047735	0.076705	0	0
3.43	0.200604	0.069126	0.053229	0.067529	0.034251	0.238206	0.050619	0.092617	0.004167	0.012858	0.149284	0.043436	0.047733	0.077177	0	0
3.4305	0.200705	0.068372	0.051278	0.064816	0.034265	0.239131	0.050923	0.089737	0.004127	0.01289	0.14641	0.041423	0.047731	0.077671	0	0
3.431	0.200802	0.067622	0.049377	0.06216	0.03427	0.240041	0.051224	0.086913	0.004088	0.012922	0.14357	0.039459	0.04773	0.078187	0	0
3.4315	0.200893	0.066877	0.047525	0.059561	0.034267	0.240934	0.051524	0.084147	0.004051	0.012953	0.140763	0.037542	0.047728	0.078724	0	0
3.432	0.200977	0.066137	0.045722	0.057017	0.034255	0.241811	0.051822	0.081436	0.004015	0.012983	0.13799	0.035674	0.047725	0.079281	0	0
3.4325	0.201055	0.065402	0.043966	0.054529	0.034234	0.24267	0.052118	0.078782	0.003981	0.013013	0.135251	0.033853	0.047722	0.079858	0	0
3.433	0.201126	0.064671	0.042258	0.052096	0.034205	0.243513	0.052412	0.076183	0.003948	0.013042	0.132547	0.032078	0.047717	0.080454	0	0
3.4335	0.201187	0.063946	0.040597	0.049717	0.034167	0.244337	0.052704	0.07364	0.003916	0.01307	0.129878	0.03035	0.047711	0.08107	0	0
3.434	0.20124	0.063225	0.038982	0.047393	0.034121	0.245143	0.052994	0.071152	0.003886	0.013098	0.127244	0.028668	0.047703	0.081705	0	0
3.4345	0.201284	0.062511	0.037413	0.045123	0.034067	0.245931	0.053281	0.068718	0.003856	0.013125	0.124645	0.027031	0.047694	0.082358	0	0
3.435	0.201317	0.061801	0.035889	0.042905	0.034004	0.2467	0.053566	0.066338	0.003828	0.013151	0.122082	0.025438	0.047682	0.083028	0	0
3.4355	0.20134	0.061098	0.03441	0.040741	0.033933	0.24745	0.053848	0.064012	0.003801	0.013176	0.119555	0.02389	0.047669	0.083715	0	0
3.436	0.201353	0.0604	0.032974	0.038628	0.033853	0.24818	0.054128	0.06174	0.003776	0.013201	0.117064	0.022385	0.047653	0.084419	0	0
3.4365	0.201355	0.059708	0.031582	0.036567	0.033765	0.24889	0.054405	0.05952	0.003751	0.013224	0.114609	0.020923	0.047635	0.085139	0	0
3.437	0.201346	0.059023	0.030232	0.034557	0.033669	0.249581	0.054679	0.057352	0.003727	0.013246	0.112191	0.019503	0.047614	0.085874	0	0
3.4375	0.201325	0.058344	0.028925	0.032598	0.033566	0.250252	0.05495	0.055237	0.003704	0.013267	0.10981	0.018126	0.047591	0.086624	0	0
3.438	0.201292	0.057671	0.027658	0.030689	0.033454	0.250903	0.055219	0.053172	0.003682	0.013288	0.107465	0.016789	0.047565	0.087388	0	0
3.4385	0.201248	0.057005	0.026433	0.028829	0.033334	0.251535	0.055484	0.051158	0.003661	0.013307	0.105157	0.015493	0.047536	0.088165	0	0
3.439	0.20119	0.056346	0.025247	0.027018	0.033206	0.252146	0.055746	0.049195	0.003641	0.013325	0.102886	0.014237	0.047504	0.088956	0	0
3.4395	0.20112	0.055694	0.024101	0.025255	0.033071	0.252737	0.056004	0.047281	0.003622	0.013342	0.100652	0.013021	0.047469	0.089759	0	0
3.44	0.201036	0.055049	0.022993	0.023539	0.032928	0.253308	0.056259	0.045416	0.003603	0.013358	0.098455	0.011843	0.04743	0.090574	0	0
3.4405	0.200939	0.054411	0.021923	0.021871	0.032778	0.253858	0.056511	0.043599	0.003586	0.013372	0.096294	0.010704	0.047389	0.0914	0	0
3.441	0.200827	0.053781	0.020891	0.020249	0.032622	0.254388	0.056759	0.041831	0.003569	0.013386	0.094171	0.009602	0.047344	0.092236	0	0
3.4415	0.2007	0.053158	0.019895	0.018672	0.032458	0.254898	0.057004	0.040109	0.003553	0.013398	0.092083	0.008538	0.047295	0.093083	0	0
3.442	0.200558	0.052542	0.018936	0.017141	0.032287	0.255387	0.057244	0.038434	0.003537	0.013409	0.090033	0.007509	0.047244	0.093939	0	0
3.4425	0.200401	0.051934	0.018011	0.015654	0.032111	0.255856	0.057481	0.036806	0.003523	0.013419	0.088019	0.006517	0.047189	0.094804	0	0
3.443	0.200228	0.051334	0.017122	0.014211	0.031928	0.256305	0.057713	0.035222	0.003509	0.013428	0.086041	0.005559	0.047131	0.095677	0	0
3.4435	0.200038	0.050742	0.016266	0.012812	0.031739	0.256733	0.057941	0.033683	0.003496	0.013435	0.084098	0.004637	0.04707	0.096558	0	0
3.444	0.19983	0.050158	0.015443	0.011454	0.031544	0.257142	0.058164	0.032189	0.003484	0.013441	0.082192	0.003748	0.047005	0.097445	0	0
3.4445	0.199606	0.049582	0.014653	0.010139	0.031344	0.25753	0.058382	0.030737	0.003472	0.013446	0.080321	0.002892	0.046938	0.098339	0	0
3.445	0.199363	0.049014	0.013895	0.008865	0.031139	0.257897	0.058596	0.029329	0.003461	0.013449	0.078486	0.002069	0.046869	0.099238	0	0
3.4455	0.199101	0.048454	0.013167	0.007632	0.030929	0.258245	0.058804	0.027963	0.003451	0.013452	0.076685	0.001279	0.046796	0.100142	0	0
3.446	0.198821	0.047903	0.012471	0.006439	0.030714	0.258572	0.059007	0.026638	0.003442	0.013453	0.074919	0.000519	0.04672	0.10105	0	0
