datacolumns 17
datarows 122
time	addmag_r	bicfemlh_r	gaslat_r	gasmed_r	gmax_r	gmed_r	gra_r	perlong_r	recfem_r	sar_r	semimem_r	sol_r	tfl_r	tibant_r	vaslat_r	vasmed_r
2.704	0.095109	0.056393	0.003572	0.003106	0.024565	0.030513	0.07165	0.00633	0.003398	0.015845	0.08717	0.002126	0.006665	0.02052	0.002656	0.002471
2.708	0.09522	0.058726	0.003499	0.004256	0.02571	0.032488	0.068808	0.006146	0.003344	0.012365	0.086864	0.001889	0.005641	0.018301	0.002696	0.002321
2.712	0.095461	0.060503	0.003471	0.005706	0.026615	0.034646	0.066051	0.006031	0.003282	0.009533	0.086025	0.00168	0.004923	0.016327	0.002718	0.002195
2.716	0.095578	0.061538	0.003495	0.007484	0.027198	0.036993	0.063288	0.005977	0.003213	0.007277	0.084619	0.001507	0.004477	0.01461	0.002718	0.00209
2.72	0.095363	0.06172	0.003573	0.009617	0.027382	0.039525	0.060461	0.005976	0.003136	0.005523	0.082638	0.00138	0.004278	0.013149	0.002694	0.001999
2.724	0.094732	0.061081	0.003708	0.012126	0.027143	0.042216	0.05756	0.00602	0.003052	0.004197	0.080154	0.001306	0.004307	0.011931	0.002648	0.001923
2.728	0.093644	0.059705	0.003902	0.015031	0.026501	0.045048	0.05455	0.006103	0.002965	0.003227	0.077299	0.001292	0.004545	0.010931	0.002584	0.001862
2.732	0.092019	0.057691	0.004155	0.01834	0.025521	0.048047	0.05139	0.006215	0.002879	0.002543	0.074184	0.001346	0.004974	0.010115	0.002508	0.001819
2.736	0.089741	0.055192	0.004463	0.022045	0.024288	0.051266	0.048074	0.006347	0.002797	0.002089	0.070918	0.001475	0.005573	0.009454	0.002427	0.001792
2.74	0.086702	0.052419	0.004818	0.026119	0.022876	0.054733	0.044615	0.006485	0.002722	0.001816	0.067655	0.001688	0.006317	0.008925	0.002347	0.001782
2.744	0.082928	0.049602	0.005209	0.030518	0.021358	0.058436	0.041051	0.006623	0.002655	0.001684	0.064561	0.001994	0.007176	0.008514	0.002277	0.001787
2.748	0.078536	0.046947	0.005622	0.035186	0.019807	0.062327	0.03745	0.006757	0.002598	0.001658	0.061789	0.002399	0.008114	0.008201	0.002221	0.001807
2.812	0.058404	0.052761	0.009498	0.106102	0.00973	0.094433	0.010393	0.008942	0.003414	0.003528	0.116919	0.028536	0.009532	0.009178	0.003614	0.002347
2.816	0.061793	0.052663	0.010154	0.111654	0.010133	0.093608	0.010186	0.009225	0.003507	0.003542	0.126148	0.031778	0.009182	0.010366	0.003834	0.002209
2.82	0.065223	0.052215	0.011235	0.118948	0.010609	0.092615	0.009995	0.009617	0.00359	0.003547	0.135004	0.035409	0.008865	0.011905	0.004096	0.002026
2.824	0.068751	0.051551	0.012845	0.1283	0.011144	0.091529	0.009804	0.010153	0.003663	0.003549	0.143535	0.039472	0.008571	0.013855	0.004406	0.001792
2.828	0.072476	0.050853	0.015086	0.139895	0.011727	0.090407	0.009608	0.010868	0.003724	0.003548	0.151936	0.043977	0.008288	0.016283	0.004763	0.001505
2.832	0.076446	0.050307	0.018055	0.153784	0.012348	0.089305	0.009412	0.011801	0.003773	0.003548	0.160277	0.04889	0.008012	0.019248	0.005166	0.001163
2.836	0.080647	0.050078	0.021842	0.1699	0.012994	0.088243	0.009226	0.012984	0.003805	0.003548	0.168464	0.054151	0.007734	0.0228	0.005606	0.000769
2.84	0.085007	0.050292	0.026526	0.188022	0.013656	0.087221	0.009052	0.014451	0.003818	0.003547	0.17626	0.059693	0.00745	0.026973	0.00607	0.000326
2.844	0.089402	0.051044	0.03218	0.207778	0.014322	0.086231	0.00889	0.016251	0.003809	0.003543	0.183422	0.065473	0.007156	0.031787	0.00654	0
2.848	0.093666	0.052388	0.038867	0.228722	0.01497	0.085255	0.008739	0.018441	0.003778	0.003537	0.189818	0.071467	0.00685	0.037236	0.006997	0
2.852	0.097585	0.054374	0.046637	0.250415	0.015576	0.084247	0.008599	0.021082	0.003726	0.003524	0.195347	0.077668	0.006523	0.043289	0.007416	0
2.856	0.100912	0.057027	0.055528	0.272399	0.016117	0.083141	0.008458	0.024242	0.003653	0.003501	0.199803	0.084077	0.006168	0.049902	0.007774	0
2.86	0.10344	0.06037	0.065561	0.294174	0.016579	0.081831	0.008311	0.027999	0.003556	0.003463	0.202913	0.090712	0.005778	0.057015	0.008053	0
2.864	0.105195	0.064468	0.076715	0.315158	0.016961	0.080189	0.00817	0.03242	0.003436	0.00341	0.204547	0.097584	0.005348	0.064563	0.00824	0
2.868	0.106397	0.069425	0.088918	0.334857	0.017281	0.078089	0.008073	0.037549	0.003296	0.003341	0.204938	0.10466	0.004883	0.072478	0.008335	0
2.872	0.107441	0.075354	0.10206	0.353334	0.017583	0.07551	0.008091	0.043412	0.003141	0.003257	0.204592	0.111923	0.004395	0.080678	0.008346	0
2.876	0.108702	0.082344	0.116011	0.371024	0.01793	0.072501	0.008304	0.050015	0.002979	0.00316	0.204081	0.119375	0.003907	0.089047	0.008288	0
2.88	0.110444	0.09044	0.130606	0.388353	0.018404	0.069166	0.008805	0.057336	0.002815	0.003047	0.203875	0.127001	0.003447	0.09746	0.008177	0
2.884	0.112836	0.09965	0.145599	0.405527	0.01909	0.065621	0.009687	0.065322	0.002657	0.002919	0.204343	0.134761	0.003038	0.105823	0.008031	0
2.888	0.115991	0.109983	0.160655	0.422493	0.020066	0.062016	0.011041	0.073883	0.002512	0.002773	0.205672	0.142607	0.002705	0.114199	0.007879	0
2.892	0.12001	0.121432	0.175393	0.439055	0.021415	0.05849	0.012958	0.0829	0.002389	0.002606	0.207932	0.150516	0.002474	0.122758	0.007748	0
2.896	0.124988	0.133968	0.189408	0.454831	0.023226	0.055181	0.015525	0.092271	0.002298	0.002414	0.21113	0.158491	0.002378	0.131722	0.007668	0.001048
2.9	0.13106	0.147561	0.20233	0.469529	0.025573	0.052223	0.018828	0.101888	0.00225	0.002191	0.215235	0.166445	0.002458	0.141229	0.007674	0.003638
2.904	0.138335	0.162109	0.213811	0.482924	0.02851	0.049804	0.022943	0.1116	0.002256	0.001932	0.22009	0.174228	0.002758	0.151389	0.007817	0.007054
2.908	0.146861	0.177422	0.223502	0.494743	0.032083	0.048164	0.027934	0.121222	0.002329	0.001636	0.225397	0.181621	0.003331	0.162364	0.008155	0.011422
2.912	0.15667	0.193171	0.231134	0.504662	0.036322	0.047555	0.033844	0.130545	0.002484	0.001307	0.230902	0.188248	0.004231	0.17424	0.008775	0.016865
2.916	0.167742	0.208928	0.236594	0.512582	0.041231	0.048239	0.040691	0.139394	0.002737	0.000956	0.236503	0.193675	0.00552	0.187061	0.009782	0.023495
2.92	0.180014	0.224183	0.240088	0.518623	0.046779	0.050471	0.048451	0.147742	0.003104	0.000605	0.242198	0.197676	0.007265	0.200863	0.011315	0.031412
2.924	0.193435	0.238416	0.242001	0.522851	0.052916	0.054495	0.057069	0.155726	0.003607	0.000281	0.248014	0.200318	0.009541	0.215665	0.013553	0.040706
2.928	0.207869	0.25108	0.242649	0.525212	0.059598	0.060531	0.066447	0.163552	0.004272	1.7e-05	0.253987	0.201803	0.012425	0.231493	0.016705	0.051451
2.932	0.223028	0.261609	0.242208	0.525665	0.066825	0.068761	0.076435	0.171384	0.00513	0	0.260082	0.202402	0.016003	0.248235	0.020983	0.063699
2.936	0.238523	0.269486	0.240678	0.524263	0.074651	0.079334	0.086817	0.179272	0.006222	0	0.266115	0.202365	0.020365	0.265655	0.026592	0.077499
2.94	0.254009	0.274363	0.23802	0.520989	0.083145	0.092365	0.097334	0.187195	0.007586	3e-06	0.271942	0.201863	0.0256	0.283462	0.033753	0.092897
2.944	0.269068	0.27601	0.234286	0.515746	0.092423	0.1079	0.107675	0.195087	0.009259	0.000426	0.277374	0.200998	0.031793	0.301201	0.04268	0.109937
2.948	0.283284	0.274396	0.229737	0.508318	0.102573	0.125972	0.117496	0.202822	0.011272	0.00117	0.282192	0.199836	0.039027	0.318157	0.053557	0.128639
2.952	0.29626	0.269637	0.224786	0.498658	0.113636	0.146656	0.126483	0.210328	0.013657	0.00232	0.286192	0.198417	0.047365	0.333615	0.066531	0.149013
2.956	0.307673	0.261906	0.219818	0.486984	0.12566	0.169996	0.134323	0.217666	0.016443	0.003974	0.288977	0.196878	0.056826	0.347048	0.081722	0.171031
2.96	0.317208	0.251458	0.215152	0.47361	0.13875	0.195928	0.140829	0.225009	0.019664	0.006234	0.289979	0.195461	0.06738	0.358092	0.099227	0.194644
2.964	0.324557	0.238667	0.211058	0.458986	0.153007	0.22435	0.14592	0.232593	0.023364	0.009208	0.288637	0.194414	0.078939	0.366493	0.119078	0.219798
2.968	0.3295	0.224052	0.207779	0.443373	0.168556	0.255069	0.149663	0.240554	0.027589	0.013014	0.284673	0.193874	0.091373	0.372085	0.141214	0.246493
2.972	0.331706	0.208225	0.205542	0.426915	0.185518	0.287811	0.152198	0.248901	0.032386	0.017775	0.277987	0.193981	0.104506	0.374609	0.165509	0.274699
2.976	0.331127	0.191804	0.20448	0.410021	0.203992	0.322258	0.153809	0.257489	0.037808	0.023636	0.26859	0.194989	0.1182	0.373608	0.191771	0.304352
2.98	0.328039	0.175291	0.204574	0.393141	0.224075	0.358132	0.154839	0.266109	0.043905	0.030773	0.256606	0.197101	0.132384	0.368636	0.219741	0.335238
2.984	0.32296	0.159099	0.205695	0.376591	0.245842	0.395116	0.155595	0.274555	0.05074	0.039361	0.242386	0.200362	0.147022	0.359702	0.249079	0.36711
2.988	0.316357	0.143565	0.207626	0.360718	0.269354	0.43283	0.156258	0.282603	0.058395	0.049568	0.226429	0.204691	0.162039	0.347497	0.279406	0.399786
2.992	0.308467	0.12897	0.210121	0.345911	0.294581	0.471044	0.156858	0.289947	0.066974	0.061536	0.209355	0.209992	0.177313	0.332967	0.31043	0.433153
2.996	0.299412	0.115532	0.212981	0.332426	0.321566	0.509405	0.157291	0.296526	0.076581	0.075369	0.191742	0.216197	0.192684	0.316996	0.342117	0.467128
3	0.289285	0.10339	0.216088	0.320526	0.350337	0.547631	0.157387	0.302695	0.08732	0.091157	0.174003	0.223282	0.207942	0.3003	0.37455	0.501451
3.004	0.278362	0.092618	0.219338	0.310632	0.380884	0.585446	0.156925	0.309062	0.09926	0.108958	0.156389	0.231242	0.222767	0.28343	0.407984	0.535736
3.008	0.266975	0.083243	0.222693	0.303052	0.413086	0.622279	0.155647	0.31617	0.112411	0.128758	0.139135	0.240021	0.236818	0.266826	0.442598	0.569336
3.012	0.255507	0.075256	0.22611	0.297886	0.44651	0.657117	0.153414	0.324374	0.126705	0.150469	0.122562	0.249482	0.249714	0.25083	0.478364	0.601451
3.016	0.244407	0.068604	0.229469	0.295042	0.48042	0.689103	0.150312	0.333874	0.141989	0.173893	0.107034	0.259591	0.261043	0.235698	0.51507	0.631335
3.02	0.234074	0.063189	0.23263	0.294205	0.514101	0.717987	0.146494	0.344928	0.158022	0.198684	0.092815	0.270385	0.270455	0.221709	0.552155	0.658364
3.024	0.22484	0.058862	0.235476	0.2948	0.546945	0.744322	0.142228	0.357641	0.174459	0.224349	0.080049	0.281766	0.277742	0.209016	0.588853	0.682139
3.028	0.216901	0.055451	0.237872	0.29619	0.57848	0.768967	0.137774	0.371905	0.190949	0.250383	0.068777	0.293479	0.282796	0.197634	0.624082	0.702383
3.032	0.210414	0.052783	0.239754	0.297997	0.608012	0.792692	0.133354	0.387448	0.207145	0.276313	0.05897	0.305349	0.285619	0.187579	0.656463	0.718958
3.036	0.205435	0.050734	0.2415	0.300042	0.634752	0.816068	0.129123	0.403808	0.222788	0.301631	0.050555	0.317323	0.286397	0.17879	0.684522	0.731739
3.04	0.201966	0.049207	0.243738	0.302397	0.657977	0.839256	0.125127	0.420764	0.237652	0.326036	0.043434	0.329318	0.285641	0.171225	0.706845	0.740342
3.044	0.199948	0.048166	0.247252	0.305515	0.677149	0.862324	0.12135	0.438531	0.251502	0.349142	0.037523	0.341175	0.28393	0.164964	0.723104	0.744813
3.048	0.19916	0.047594	0.252715	0.310009	0.691991	0.885446	0.117754	0.457684	0.264239	0.37054	0.032733	0.352795	0.282002	0.16021	0.733975	0.745508
3.052	0.199224	0.047478	0.260637	0.31625	0.702229	0.909027	0.11425	0.478596	0.27578	0.389875	0.028957	0.363976	0.280668	0.157096	0.741011	0.74322
3.056	0.199685	0.047782	0.271319	0.324373	0.708137	0.933335	0.11078	0.501318	0.28618	0.406745	0.026078	0.374317	0.280664	0.155612	0.745606	0.738759
3.06	0.200168	0.048435	0.284904	0.334433	0.710146	0.957973	0.107336	0.525732	0.295616	0.420993	0.023989	0.383728	0.282513	0.155618	0.748637	0.733053
3.064	0.200377	0.049356	0.301412	0.346422	0.709094	0.982182	0.103931	0.551868	0.304403	0.433009	0.022587	0.392739	0.286485	0.156873	0.750645	0.726758
3.068	0.200059	0.050463	0.320669	0.360432	0.706067	1.00506	0.100661	0.579711	0.313032	0.443475	0.021779	0.401991	0.292655	0.15909	0.752206	0.720262
3.072	0.199137	0.051696	0.342222	0.376512	0.701862	1.02503	0.097625	0.609051	0.322056	0.453349	0.021477	0.411833	0.300957	0.161983	0.754046	0.714067
3.076	0.197529	0.05302	0.365349	0.394411	0.696961	1.040109	0.094852	0.639629	0.331851	0.463713	0.021596	0.422208	0.311208	0.165311	0.756828	0.708763
3.08	0.19508	0.054444	0.389022	0.413672	0.691393	1.048708	0.092387	0.671018	0.342637	0.475546	0.022064	0.432698	0.323084	0.168972	0.761024	0.704933
3.084	0.191821	0.055978	0.412114	0.433786	0.684839	1.049585	0.090322	0.702794	0.354562	0.489692	0.022825	0.442582	0.336209	0.172997	0.766582	0.703044
3.088	0.187859	0.057614	0.434014	0.454355	0.676797	1.042403	0.088706	0.734569	0.367565	0.506725	0.023838	0.451334	0.350226	0.177429	0.773018	0.703452
3.092	0.183341	0.059317	0.454498	0.475072	0.666613	1.027312	0.087552	0.765927	0.38133	0.526783	0.025069	0.458774	0.36486	0.182304	0.779729	0.706075
3.096	0.178481	0.06104	0.473556	0.495928	0.653839	1.004654	0.086843	0.796062	0.395444	0.549666	0.026473	0.464933	0.379723	0.187627	0.785913	0.710369
3.1	0.173446	0.062726	0.490959	0.517107	0.63837	0.974786	0.086498	0.824375	0.409479	0.575053	0.028002	0.470065	0.39435	0.19343	0.791076	0.715937
3.104	0.168306	0.064342	0.506382	0.538617	0.620463	0.938204	0.086385	0.850942	0.423207	0.602384	0.029592	0.47444	0.408424	0.199768	0.795101	0.722644
3.108	0.163058	0.065874	0.519711	0.560296	0.600377	0.895764	0.086326	0.876648	0.436549	0.630831	0.031163	0.478359	0.421446	0.2066	0.79807	0.73024
3.112	0.15766	0.067283	0.531049	0.581705	0.57843	0.848638	0.086135	0.902142	0.449332	0.659341	0.032631	0.481949	0.43277	0.213797	0.799982	0.738041
3.116	0.152101	0.068502	0.540766	0.602073	0.554766	0.798144	0.085668	0.927562	0.461209	0.686731	0.033919	0.485175	0.441863	0.221149	0.800103	0.745146
3.12	0.146466	0.06948	0.549418	0.620578	0.529409	0.745514	0.08487	0.9529	0.471591	0.711738	0.034989	0.488026	0.44831	0.22838	0.797106	0.750739
3.124	0.140812	0.070175	0.557448	0.636974	0.502351	0.691666	0.083723	0.977566	0.479777	0.73306	0.035819	0.490528	0.452027	0.235182	0.789744	0.753773
3.128	0.135166	0.070508	0.565129	0.651256	0.473481	0.637303	0.082197	1.000257	0.484918	0.749712	0.036386	0.492625	0.453329	0.241199	0.777076	0.753105
3.132	0.129525	0.070393	0.572608	0.663347	0.442921	0.583168	0.08027	1.01927	0.486467	0.760934	0.036668	0.49404	0.452772	0.246075	0.758838	0.747855
3.136	0.123889	0.069769	0.579734	0.673422	0.410865	0.53022	0.07794	1.033148	0.484256	0.766585	0.036648	0.49434	0.45111	0.249531	0.735251	0.73771
3.14	0.118345	0.068638	0.586035	0.681589	0.377586	0.479401	0.075241	1.040846	0.478647	0.766896	0.036341	0.492967	0.44904	0.251374	0.707276	0.723135
3.144	0.112944	0.067038	0.590871	0.687758	0.343617	0.431349	0.072233	1.041848	0.470343	0.762448	0.035771	0.489751	0.447098	0.251422	0.676338	0.704823
3.148	0.10776	0.065021	0.593419	0.691415	0.30955	0.386503	0.069027	1.036041	0.460063	0.754106	0.034966	0.48478	0.445546	0.249592	0.644071	0.68372
3.152	0.102892	0.062682	0.593093	0.691732	0.276118	0.345136	0.065768	1.023483	0.448313	0.742427	0.033985	0.478036	0.44436	0.245948	0.611788	0.660887
3.156	0.098348	0.060092	0.58993	0.68819	0.243922	0.307387	0.062555	1.004623	0.435482	0.727834	0.032868	0.469535	0.443425	0.240661	0.580447	0.636824
3.16	0.094071	0.057281	0.584134	0.681038	0.213344	0.273262	0.059438	0.980254	0.42211	0.711238	0.031633	0.459322	0.442507	0.233946	0.550553	0.611398
3.164	0.090005	0.054258	0.575743	0.67063	0.184722	0.242817	0.056474	0.950964	0.408888	0.693719	0.030288	0.447396	0.441383	0.226077	0.522231	0.584557
3.168	0.086191	0.051065	0.564656	0.657314	0.158419	0.216161	0.053736	0.917435	0.396639	0.676068	0.028863	0.433536	0.440017	0.217326	0.495469	0.556602
3.172	0.082749	0.047777	0.550824	0.641305	0.134829	0.193351	0.051301	0.880533	0.386116	0.65865	0.027394	0.417367	0.438574	0.207896	0.470382	0.528092
3.176	0.079846	0.044515	0.534366	0.622667	0.114266	0.174327	0.049283	0.840992	0.377865	0.641589	0.025947	0.39836	0.437288	0.197914	0.447514	0.500194
3.18	0.077622	0.041415	0.515341	0.60105	0.096987	0.15899	0.047789	0.799039	0.372163	0.624846	0.024588	0.376346	0.43624	0.187493	0.427704	0.474171
3.184	0.076139	0.038593	0.493694	0.576065	0.083162	0.147127	0.046909	0.754312	0.369139	0.608613	0.023373	0.351798	0.435321	0.176684	0.411823	0.451339
3.188	0.075398	0.036136	0.469562	0.547623	0.072849	0.138374	0.046691	0.706227	0.368946	0.593269	0.022335	0.325451	0.434214	0.165457	0.400573	0.432795
3.192	0.075381	0.034096	0.44297	0.515641	0.066024	0.132296	0.047137	0.654713	0.371751	0.579654	0.021492	0.297883	0.43252	0.153795	0.394368	0.419212
3.196	0.076062	0.032493	0.413798	0.48035	0.0626	0.128491	0.048201	0.600438	0.377637	0.568651	0.020851	0.269455	0.429981	0.141791	0.393277	0.410928
3.2	0.077379	0.031331	0.382119	0.442271	0.062456	0.126546	0.049796	0.544513	0.386436	0.560924	0.02041	0.240552	0.426504	0.129624	0.397173	0.407954
3.204	0.07923	0.030611	0.348371	0.40194	0.065429	0.12608	0.051807	0.488275	0.39763	0.556799	0.020155	0.211766	0.422192	0.117541	0.405714	0.409938
3.208	0.081505	0.030321	0.313356	0.360025	0.071311	0.12669	0.054114	0.432969	0.410352	0.55633	0.020069	0.183723	0.416988	0.105774	0.418516	0.416315
3.212	0.084064	0.030439	0.278018	0.317538	0.079852	0.128	0.056568	0.379593	0.423463	0.559483	0.02013	0.156938	0.410924	0.094526	0.435001	0.426425
3.216	0.086759	0.030931	0.243275	0.275694	0.090739	0.129703	0.059027	0.328949	0.4357	0.565926	0.020315	0.131855	0.404101	0.083987	0.454252	0.439552
3.22	0.089451	0.03176	0.209921	0.235592	0.103597	0.131597	0.061349	0.281646	0.445842	0.574937	0.0206	0.108825	0.396489	0.074269	0.475377	0.454845
3.224	0.092034	0.032879	0.178562	0.198068	0.118056	0.133617	0.063438	0.238118	0.453061	0.585381	0.020957	0.088083	0.388117	0.065427	0.497357	0.471408
3.228	0.094467	0.03425	0.149682	0.163701	0.133717	0.135705	0.065254	0.198745	0.456867	0.596023	0.021376	0.069755	0.378921	0.05749	0.519157	0.488375
3.232	0.0967	0.035826	0.123632	0.132838	0.1501	0.137786	0.066785	0.163854	0.457184	0.605713	0.021841	0.053872	0.368788	0.050496	0.539642	0.5047
3.236	0.098676	0.037557	0.100598	0.105635	0.166705	0.139751	0.068076	0.133614	0.453988	0.613207	0.022337	0.040387	0.357853	0.044458	0.557418	0.519079
3.24	0.100286	0.039366	0.08062	0.082087	0.183042	0.14145	0.069156	0.108007	0.447202	0.617077	0.022839	0.02919	0.3464	0.039346	0.570811	0.529882
3.244	0.101444	0.041162	0.063619	0.06207	0.19858	0.142722	0.070006	0.086853	0.436871	0.616052	0.02332	0.020122	0.334796	0.035085	0.578391	0.535864
3.248	0.102098	0.042834	0.049426	0.045371	0.21275	0.143407	0.070558	0.069846	0.423232	0.609494	0.023751	0.012991	0.323508	0.03156	0.579447	0.536677
