datacolumns 17
datarows 1203
time	addmag_r	bicfemlh_r	gaslat_r	gasmed_r	gmax_r	gmed_r	gra_r	perlong_r	recfem_r	sar_r	semimem_r	sol_r	tfl_r	tibant_r	vaslat_r	vasmed_r
2.702	0.09517	0.055076	0.003622	0.002634	0.023931	0.02959	0.073138	0.00645	0.003423	0.017848	0.087123	0.002251	0.007301	0.021715	0.00263	0.002556
2.7025	0.095145	0.055413	0.003609	0.002746	0.024092	0.029817	0.072761	0.006418	0.003417	0.01733	0.087148	0.00222	0.007134	0.021411	0.002636	0.002534
2.703	0.095127	0.055745	0.003596	0.002862	0.024252	0.030046	0.072388	0.006388	0.003411	0.016824	0.087164	0.002188	0.006972	0.02111	0.002643	0.002513
2.7035	0.095115	0.056072	0.003583	0.002982	0.02441	0.030278	0.072017	0.006358	0.003405	0.016328	0.087171	0.002157	0.006816	0.020813	0.002649	0.002491
2.704	0.095109	0.056393	0.003572	0.003106	0.024565	0.030513	0.07165	0.00633	0.003398	0.015845	0.08717	0.002126	0.006665	0.02052	0.002656	0.002471
2.7045	0.095108	0.056709	0.00356	0.003234	0.024719	0.03075	0.071286	0.006303	0.003392	0.015372	0.08716	0.002095	0.006519	0.02023	0.002662	0.00245
2.705	0.095112	0.057018	0.00355	0.003367	0.024869	0.03099	0.070925	0.006278	0.003385	0.01491	0.087143	0.002065	0.006379	0.019943	0.002667	0.002431
2.7055	0.095121	0.057321	0.00354	0.003504	0.025017	0.031233	0.070567	0.006253	0.003379	0.014459	0.087117	0.002035	0.006243	0.01966	0.002673	0.002411
2.706	0.095134	0.057617	0.00353	0.003646	0.025162	0.031478	0.070211	0.006229	0.003372	0.014019	0.087083	0.002005	0.006113	0.019381	0.002678	0.002392
2.7065	0.09515	0.057906	0.003521	0.003791	0.025304	0.031727	0.069858	0.006207	0.003365	0.01359	0.08704	0.001975	0.005988	0.019106	0.002683	0.002374
2.707	0.095171	0.058188	0.003513	0.003942	0.025443	0.031978	0.069506	0.006185	0.003358	0.013171	0.08699	0.001946	0.005867	0.018834	0.002688	0.002356
2.7075	0.095194	0.058461	0.003506	0.004097	0.025578	0.032232	0.069157	0.006165	0.003351	0.012763	0.086931	0.001918	0.005752	0.018566	0.002692	0.002338
2.708	0.09522	0.058726	0.003499	0.004256	0.02571	0.032488	0.068808	0.006146	0.003344	0.012365	0.086864	0.001889	0.005641	0.018301	0.002696	0.002321
2.7085	0.095248	0.058982	0.003493	0.00442	0.025838	0.032748	0.068462	0.006128	0.003337	0.011977	0.086789	0.001862	0.005536	0.018041	0.0027	0.002304
2.709	0.095278	0.05923	0.003488	0.004589	0.025962	0.033011	0.068116	0.006111	0.003329	0.011599	0.086706	0.001834	0.005435	0.017784	0.002704	0.002287
2.7095	0.095308	0.059468	0.003483	0.004763	0.026082	0.033276	0.067771	0.006095	0.003322	0.011231	0.086614	0.001807	0.005338	0.017532	0.002707	0.002271
2.71	0.09534	0.059696	0.003479	0.004942	0.026197	0.033544	0.067426	0.00608	0.003314	0.010872	0.086513	0.001781	0.005246	0.017283	0.00271	0.002255
2.7105	0.095371	0.059914	0.003476	0.005126	0.026309	0.033815	0.067082	0.006066	0.003306	0.010523	0.086404	0.001755	0.005159	0.017038	0.002713	0.00224
2.711	0.095402	0.060121	0.003474	0.005314	0.026415	0.034089	0.066738	0.006053	0.003298	0.010184	0.086286	0.001729	0.005076	0.016797	0.002715	0.002225
2.7115	0.095432	0.060318	0.003472	0.005508	0.026517	0.034366	0.066395	0.006042	0.00329	0.009854	0.08616	0.001704	0.004997	0.01656	0.002717	0.00221
2.712	0.095461	0.060503	0.003471	0.005706	0.026615	0.034646	0.066051	0.006031	0.003282	0.009533	0.086025	0.00168	0.004923	0.016327	0.002718	0.002195
2.7125	0.095488	0.060677	0.003472	0.00591	0.026707	0.034929	0.065708	0.006021	0.003274	0.009221	0.085881	0.001656	0.004853	0.016098	0.002719	0.002181
2.713	0.095512	0.060838	0.003472	0.006119	0.026794	0.035215	0.065364	0.006012	0.003266	0.008918	0.085728	0.001633	0.004787	0.015874	0.00272	0.002167
2.7135	0.095533	0.060987	0.003474	0.006333	0.026876	0.035504	0.06502	0.006004	0.003257	0.008624	0.085566	0.00161	0.004726	0.015653	0.002721	0.002154
2.714	0.095551	0.061124	0.003476	0.006553	0.026952	0.035796	0.064675	0.005997	0.003249	0.008338	0.085395	0.001589	0.004668	0.015436	0.002721	0.00214
2.7145	0.095565	0.061247	0.00348	0.006778	0.027022	0.036091	0.064329	0.00599	0.00324	0.008061	0.085214	0.001567	0.004614	0.015223	0.002721	0.002127
2.715	0.095574	0.061358	0.003484	0.007008	0.027087	0.036389	0.063983	0.005985	0.003231	0.007792	0.085025	0.001547	0.004565	0.015015	0.00272	0.002115
2.7155	0.095579	0.061454	0.003489	0.007243	0.027146	0.03669	0.063636	0.00598	0.003222	0.007531	0.084827	0.001527	0.004519	0.01481	0.002719	0.002102
2.716	0.095578	0.061538	0.003495	0.007484	0.027198	0.036993	0.063288	0.005977	0.003213	0.007277	0.084619	0.001507	0.004477	0.01461	0.002718	0.00209
2.7165	0.095572	0.061607	0.003501	0.007731	0.027244	0.0373	0.062938	0.005974	0.003204	0.007032	0.084402	0.001489	0.00444	0.014413	0.002716	0.002078
2.717	0.09556	0.061663	0.003509	0.007983	0.027283	0.03761	0.062588	0.005972	0.003195	0.006795	0.084177	0.001471	0.004405	0.014221	0.002714	0.002066
2.7175	0.095543	0.061706	0.003517	0.008241	0.027316	0.037922	0.062236	0.005971	0.003185	0.006565	0.083942	0.001454	0.004375	0.014032	0.002712	0.002054
2.718	0.09552	0.061735	0.003527	0.008505	0.027343	0.038237	0.061884	0.00597	0.003175	0.006342	0.083698	0.001438	0.004348	0.013848	0.002709	0.002043
2.7185	0.09549	0.061751	0.003537	0.008774	0.027363	0.038555	0.06153	0.005971	0.003166	0.006127	0.083446	0.001422	0.004325	0.013667	0.002706	0.002031
2.719	0.095454	0.061754	0.003548	0.009049	0.027376	0.038876	0.061175	0.005972	0.003156	0.005919	0.083185	0.001407	0.004306	0.013491	0.002702	0.002021
2.7195	0.095412	0.061744	0.00356	0.00933	0.027382	0.039199	0.060819	0.005973	0.003146	0.005717	0.082916	0.001393	0.004291	0.013318	0.002698	0.00201
2.72	0.095363	0.06172	0.003573	0.009617	0.027382	0.039525	0.060461	0.005976	0.003136	0.005523	0.082638	0.00138	0.004278	0.013149	0.002694	0.001999
2.7205	0.095307	0.061684	0.003586	0.009909	0.027375	0.039854	0.060103	0.005979	0.003125	0.005335	0.082352	0.001368	0.00427	0.012984	0.002689	0.001989
2.721	0.095245	0.061635	0.003601	0.010208	0.027362	0.040184	0.059743	0.005983	0.003115	0.005154	0.082059	0.001357	0.004265	0.012823	0.002684	0.001979
2.7215	0.095177	0.061573	0.003616	0.010512	0.027342	0.040517	0.059383	0.005987	0.003105	0.00498	0.081759	0.001346	0.004263	0.012665	0.002679	0.001969
2.722	0.095101	0.061499	0.003633	0.010823	0.027315	0.040853	0.059021	0.005993	0.003094	0.004811	0.081451	0.001336	0.004265	0.012511	0.002673	0.001959
2.7225	0.095019	0.061412	0.00365	0.01114	0.027282	0.04119	0.058658	0.005999	0.003084	0.004649	0.081136	0.001327	0.004271	0.012361	0.002668	0.00195
2.723	0.09493	0.061314	0.003669	0.011462	0.027242	0.04153	0.058293	0.006005	0.003073	0.004492	0.080815	0.001319	0.004279	0.012214	0.002661	0.001941
2.7235	0.094835	0.061203	0.003688	0.011791	0.027196	0.041872	0.057927	0.006012	0.003063	0.004342	0.080488	0.001312	0.004292	0.012071	0.002655	0.001932
2.724	0.094732	0.061081	0.003708	0.012126	0.027143	0.042216	0.05756	0.00602	0.003052	0.004197	0.080154	0.001306	0.004307	0.011931	0.002648	0.001923
2.7245	0.094622	0.060947	0.003729	0.012467	0.027084	0.042562	0.05719	0.006028	0.003041	0.004058	0.079815	0.001301	0.004326	0.011795	0.002641	0.001914
2.725	0.094505	0.060803	0.003751	0.012815	0.027019	0.04291	0.05682	0.006037	0.00303	0.003924	0.07947	0.001297	0.004347	0.011662	0.002633	0.001906
2.7255	0.094381	0.060647	0.003774	0.013168	0.026947	0.043261	0.056447	0.006047	0.00302	0.003796	0.07912	0.001294	0.004373	0.011532	0.002626	0.001898
2.726	0.094249	0.06048	0.003798	0.013528	0.02687	0.043613	0.056072	0.006057	0.003009	0.003672	0.078765	0.001291	0.004401	0.011406	0.002618	0.00189
2.7265	0.09411	0.060302	0.003822	0.013895	0.026786	0.043968	0.055695	0.006068	0.002998	0.003554	0.078405	0.00129	0.004432	0.011282	0.00261	0.001883
2.727	0.093963	0.060113	0.003848	0.014267	0.026696	0.044326	0.055316	0.006079	0.002987	0.00344	0.07804	0.00129	0.004467	0.011162	0.002602	0.001876
2.7275	0.093807	0.059914	0.003875	0.014646	0.026601	0.044686	0.054934	0.006091	0.002976	0.003331	0.077672	0.001291	0.004504	0.011045	0.002593	0.001869
2.728	0.093644	0.059705	0.003902	0.015031	0.026501	0.045048	0.05455	0.006103	0.002965	0.003227	0.077299	0.001292	0.004545	0.010931	0.002584	0.001862
2.7285	0.093472	0.059485	0.003931	0.015423	0.026395	0.045412	0.054163	0.006115	0.002955	0.003127	0.076921	0.001295	0.004589	0.010819	0.002575	0.001856
2.729	0.093292	0.059256	0.00396	0.015821	0.026284	0.04578	0.053774	0.006128	0.002944	0.003032	0.076541	0.001299	0.004635	0.010711	0.002566	0.00185
2.7295	0.093103	0.059017	0.00399	0.016225	0.026168	0.04615	0.053383	0.006142	0.002933	0.002941	0.076156	0.001304	0.004685	0.010605	0.002557	0.001844
2.73	0.092905	0.058769	0.004022	0.016636	0.026048	0.046523	0.052989	0.006156	0.002922	0.002853	0.075768	0.00131	0.004737	0.010502	0.002547	0.001838
2.7305	0.092698	0.058512	0.004054	0.017052	0.025922	0.046899	0.052593	0.00617	0.002911	0.00277	0.075377	0.001318	0.004792	0.010401	0.002538	0.001833
2.731	0.092481	0.058247	0.004087	0.017475	0.025793	0.047278	0.052195	0.006185	0.002901	0.002691	0.074982	0.001326	0.00485	0.010304	0.002528	0.001828
2.7315	0.092255	0.057973	0.004121	0.017905	0.025659	0.047661	0.051794	0.0062	0.00289	0.002615	0.074584	0.001335	0.004911	0.010208	0.002518	0.001823
2.732	0.092019	0.057691	0.004155	0.01834	0.025521	0.048047	0.05139	0.006215	0.002879	0.002543	0.074184	0.001346	0.004974	0.010115	0.002508	0.001819
2.7325	0.091773	0.057401	0.004191	0.018782	0.025379	0.048436	0.050984	0.006231	0.002869	0.002475	0.073781	0.001358	0.00504	0.010025	0.002498	0.001814
2.733	0.091517	0.057104	0.004228	0.01923	0.025233	0.048829	0.050576	0.006247	0.002858	0.00241	0.073376	0.001371	0.005109	0.009936	0.002488	0.00181
2.7335	0.091249	0.0568	0.004265	0.019684	0.025084	0.049225	0.050165	0.006263	0.002848	0.002349	0.072969	0.001385	0.00518	0.00985	0.002478	0.001807
2.734	0.090971	0.05649	0.004303	0.020144	0.024931	0.049626	0.049752	0.00628	0.002838	0.00229	0.07256	0.001401	0.005254	0.009767	0.002468	0.001803
2.7345	0.090681	0.056173	0.004342	0.020611	0.024775	0.05003	0.049336	0.006296	0.002828	0.002235	0.072151	0.001417	0.00533	0.009685	0.002458	0.0018
2.735	0.090379	0.055851	0.004382	0.021083	0.024616	0.050438	0.048918	0.006313	0.002817	0.002183	0.07174	0.001435	0.005408	0.009606	0.002447	0.001797
2.7355	0.090066	0.055524	0.004422	0.021561	0.024453	0.05085	0.048497	0.00633	0.002807	0.002135	0.071329	0.001455	0.005489	0.009529	0.002437	0.001794
2.736	0.089741	0.055192	0.004463	0.022045	0.024288	0.051266	0.048074	0.006347	0.002797	0.002089	0.070918	0.001475	0.005573	0.009454	0.002427	0.001792
2.7365	0.089404	0.054855	0.004505	0.022535	0.02412	0.051686	0.047649	0.006364	0.002788	0.002046	0.070506	0.001497	0.005658	0.009381	0.002417	0.00179
2.737	0.089054	0.054515	0.004548	0.02303	0.023949	0.052109	0.047222	0.006381	0.002778	0.002005	0.070095	0.00152	0.005746	0.00931	0.002406	0.001788
2.7375	0.088692	0.054171	0.004591	0.023531	0.023775	0.052537	0.046792	0.006399	0.002768	0.001968	0.069685	0.001545	0.005836	0.009241	0.002396	0.001786
2.738	0.088318	0.053825	0.004635	0.024038	0.0236	0.052968	0.046361	0.006416	0.002759	0.001932	0.069276	0.001571	0.005928	0.009174	0.002386	0.001785
2.7385	0.087932	0.053476	0.00468	0.02455	0.023422	0.053404	0.045927	0.006433	0.002749	0.0019	0.068868	0.001598	0.006023	0.009109	0.002376	0.001784
2.739	0.087534	0.053125	0.004725	0.025068	0.023242	0.053843	0.045491	0.006451	0.00274	0.001869	0.068461	0.001627	0.006119	0.009046	0.002367	0.001783
2.7395	0.087124	0.052772	0.004771	0.025591	0.023059	0.054286	0.045054	0.006468	0.002731	0.001842	0.068057	0.001657	0.006217	0.008985	0.002357	0.001782
2.74	0.086702	0.052419	0.004818	0.026119	0.022876	0.054733	0.044615	0.006485	0.002722	0.001816	0.067655	0.001688	0.006317	0.008925	0.002347	0.001782
2.7405	0.086269	0.052064	0.004865	0.026652	0.02269	0.055184	0.044174	0.006503	0.002713	0.001792	0.067256	0.001721	0.006419	0.008868	0.002338	0.001781
2.741	0.085824	0.05171	0.004913	0.02719	0.022503	0.055638	0.043732	0.00652	0.002704	0.001771	0.066859	0.001755	0.006522	0.008812	0.002329	0.001781
2.7415	0.085369	0.051356	0.004961	0.027733	0.022315	0.056096	0.043288	0.006537	0.002696	0.001752	0.066466	0.001791	0.006627	0.008758	0.002319	0.001782
2.742	0.084902	0.051002	0.00501	0.028281	0.022125	0.056557	0.042843	0.006555	0.002687	0.001734	0.066077	0.001829	0.006734	0.008706	0.00231	0.001782
2.7425	0.084424	0.050649	0.005059	0.028833	0.021934	0.057022	0.042396	0.006572	0.002679	0.001719	0.065691	0.001868	0.006842	0.008656	0.002302	0.001783
2.743	0.083936	0.050298	0.005108	0.02939	0.021743	0.05749	0.041949	0.006589	0.002671	0.001705	0.06531	0.001908	0.006952	0.008607	0.002293	0.001784
2.7435	0.083437	0.049949	0.005158	0.029952	0.021551	0.057961	0.0415	0.006606	0.002663	0.001694	0.064933	0.00195	0.007063	0.00856	0.002285	0.001785
2.744	0.082928	0.049602	0.005209	0.030518	0.021358	0.058436	0.041051	0.006623	0.002655	0.001684	0.064561	0.001994	0.007176	0.008514	0.002277	0.001787
2.7445	0.082409	0.049258	0.005259	0.031088	0.021164	0.058913	0.040601	0.00664	0.002647	0.001675	0.064194	0.002039	0.007289	0.00847	0.002269	0.001789
2.745	0.081881	0.048917	0.00531	0.031662	0.020971	0.059393	0.040151	0.006657	0.002639	0.001668	0.063832	0.002085	0.007404	0.008428	0.002261	0.00179
2.7455	0.081343	0.048578	0.005362	0.03224	0.020777	0.059876	0.0397	0.006674	0.002632	0.001663	0.063476	0.002134	0.00752	0.008387	0.002254	0.001793
2.746	0.080797	0.048244	0.005413	0.032822	0.020583	0.060362	0.039249	0.006691	0.002625	0.001659	0.063126	0.002183	0.007637	0.008347	0.002247	0.001795
2.7465	0.080243	0.047913	0.005465	0.033408	0.020388	0.06085	0.038799	0.006708	0.002618	0.001657	0.062782	0.002235	0.007755	0.008309	0.00224	0.001798
2.747	0.079681	0.047587	0.005517	0.033997	0.020194	0.06134	0.038348	0.006724	0.002611	0.001656	0.062444	0.002288	0.007874	0.008272	0.002233	0.0018
2.7475	0.079112	0.047265	0.00557	0.03459	0.020001	0.061833	0.037899	0.006741	0.002604	0.001656	0.062113	0.002343	0.007994	0.008236	0.002227	0.001803
2.748	0.078536	0.046947	0.005622	0.035186	0.019807	0.062327	0.03745	0.006757	0.002598	0.001658	0.061789	0.002399	0.008114	0.008201	0.002221	0.001807
2.7485	0.077954	0.046635	0.005675	0.035785	0.019614	0.062823	0.037002	0.006773	0.002591	0.001661	0.061471	0.002458	0.008235	0.008168	0.002215	0.00181
2.749	0.077366	0.046328	0.005728	0.036388	0.019421	0.063321	0.036554	0.00679	0.002585	0.001665	0.061161	0.002517	0.008356	0.008136	0.00221	0.001814
2.7495	0.076773	0.046026	0.005781	0.036994	0.01923	0.06382	0.036109	0.006806	0.002579	0.00167	0.060858	0.002579	0.008478	0.008104	0.002205	0.001818
2.75	0.076175	0.045731	0.005834	0.037602	0.019038	0.06432	0.035664	0.006822	0.002573	0.001677	0.060563	0.002642	0.008601	0.008074	0.0022	0.001822
2.7505	0.075572	0.045441	0.005887	0.038214	0.018848	0.064821	0.035221	0.006837	0.002568	0.001684	0.060275	0.002707	0.008723	0.008044	0.002196	0.001826
2.751	0.074966	0.045158	0.00594	0.038828	0.018658	0.065323	0.034779	0.006853	0.002562	0.001693	0.059995	0.002774	0.008846	0.008015	0.002192	0.001831
2.7515	0.074355	0.044881	0.005994	0.039445	0.01847	0.065825	0.034339	0.006869	0.002557	0.001702	0.059722	0.002842	0.008969	0.007987	0.002188	0.001836
2.752	0.073741	0.044611	0.006047	0.040064	0.018282	0.066327	0.033901	0.006884	0.002552	0.001713	0.059458	0.002913	0.009092	0.007959	0.002185	0.001841
2.7525	0.073125	0.044348	0.0061	0.040686	0.018096	0.066828	0.033465	0.0069	0.002547	0.001724	0.059201	0.002985	0.009215	0.007933	0.002181	0.001846
2.753	0.072505	0.044092	0.006153	0.041311	0.017911	0.067329	0.033032	0.006915	0.002543	0.001736	0.058953	0.003059	0.009338	0.007906	0.002179	0.001852
2.7535	0.071884	0.043843	0.006206	0.041937	0.017727	0.067829	0.0326	0.00693	0.002538	0.001749	0.058712	0.003134	0.00946	0.007881	0.002176	0.001857
2.754	0.071261	0.043602	0.006259	0.042566	0.017545	0.068328	0.032172	0.006945	0.002534	0.001763	0.05848	0.003212	0.009582	0.007855	0.002174	0.001863
2.7545	0.070636	0.043368	0.006311	0.043196	0.017364	0.068825	0.031745	0.00696	0.00253	0.001778	0.058256	0.003291	0.009704	0.00783	0.002173	0.001869
2.755	0.070011	0.043142	0.006364	0.043828	0.017185	0.069321	0.031322	0.006975	0.002526	0.001794	0.05804	0.003372	0.009825	0.007806	0.002171	0.001876
2.7555	0.069386	0.042925	0.006416	0.044462	0.017007	0.069814	0.030902	0.006989	0.002523	0.00181	0.057832	0.003455	0.009946	0.007782	0.002171	0.001882
2.756	0.06876	0.042715	0.006468	0.045098	0.016831	0.070304	0.030485	0.007004	0.002519	0.001827	0.057633	0.00354	0.010065	0.007758	0.00217	0.001889
2.7565	0.068135	0.042514	0.00652	0.045735	0.016657	0.070792	0.030072	0.007018	0.002516	0.001845	0.057442	0.003627	0.010184	0.007734	0.00217	0.001896
2.757	0.067511	0.042321	0.006571	0.046373	0.016484	0.071276	0.029662	0.007033	0.002513	0.001863	0.05726	0.003716	0.010302	0.00771	0.00217	0.001903
2.7575	0.066889	0.042136	0.006622	0.047011	0.016313	0.071757	0.029255	0.007047	0.002511	0.001882	0.057087	0.003806	0.010419	0.007687	0.002171	0.00191
2.758	0.066269	0.041961	0.006673	0.047651	0.016144	0.072234	0.028853	0.007061	0.002508	0.001901	0.056922	0.003899	0.010535	0.007663	0.002172	0.001918
2.7585	0.065651	0.041793	0.006724	0.048292	0.015977	0.072707	0.028454	0.007075	0.002506	0.001921	0.056766	0.003993	0.010649	0.00764	0.002173	0.001926
2.759	0.065036	0.041635	0.006774	0.048933	0.015811	0.073176	0.02806	0.007089	0.002504	0.001942	0.056619	0.00409	0.010763	0.007616	0.002175	0.001934
2.7595	0.064423	0.041486	0.006824	0.049574	0.015648	0.07364	0.027669	0.007102	0.002503	0.001963	0.05648	0.004188	0.010875	0.007593	0.002177	0.001942
2.76	0.063815	0.041346	0.006873	0.050216	0.015486	0.0741	0.027283	0.007116	0.002501	0.001984	0.056351	0.004289	0.010985	0.00757	0.002179	0.00195
2.7605	0.063211	0.041214	0.006922	0.050858	0.015326	0.074555	0.026901	0.007129	0.0025	0.002006	0.056231	0.004391	0.011094	0.007546	0.002182	0.001958
2.761	0.062611	0.041092	0.00697	0.0515	0.015168	0.075005	0.026524	0.007143	0.002499	0.002028	0.05612	0.004496	0.011201	0.007523	0.002185	0.001967
2.7615	0.062016	0.040979	0.007018	0.052143	0.015012	0.07545	0.026151	0.007156	0.002499	0.00205	0.056018	0.004602	0.011306	0.007499	0.002189	0.001975
2.762	0.061426	0.040875	0.007065	0.052785	0.014858	0.075891	0.025783	0.007169	0.002499	0.002073	0.055926	0.00471	0.011409	0.007475	0.002193	0.001984
2.7625	0.060841	0.04078	0.007112	0.053428	0.014706	0.076326	0.025419	0.007182	0.002499	0.002096	0.055843	0.004821	0.01151	0.007452	0.002197	0.001993
2.763	0.060263	0.040694	0.007159	0.054071	0.014556	0.076757	0.02506	0.007195	0.002499	0.002119	0.055769	0.004934	0.011609	0.007428	0.002202	0.002003
2.7635	0.059692	0.040617	0.007205	0.054714	0.014408	0.077183	0.024706	0.007208	0.002499	0.002143	0.055704	0.005049	0.011706	0.007404	0.002207	0.002012
2.764	0.059127	0.04055	0.00725	0.055356	0.014262	0.077604	0.024357	0.00722	0.0025	0.002167	0.055649	0.005166	0.011801	0.007379	0.002212	0.002021
2.7645	0.058569	0.040491	0.007295	0.055999	0.014118	0.078019	0.024013	0.007233	0.002501	0.002191	0.055604	0.005285	0.011893	0.007355	0.002218	0.002031
2.765	0.058018	0.040442	0.00734	0.056642	0.013975	0.07843	0.023674	0.007246	0.002502	0.002215	0.055568	0.005406	0.011982	0.007331	0.002224	0.00204
2.7655	0.057476	0.040402	0.007384	0.057284	0.013835	0.078835	0.02334	0.007259	0.002504	0.002239	0.055541	0.00553	0.012069	0.007306	0.00223	0.00205
2.766	0.056941	0.040371	0.007427	0.057927	0.013697	0.079235	0.02301	0.007272	0.002506	0.002263	0.055524	0.005655	0.012152	0.007281	0.002237	0.00206
2.7665	0.056415	0.040348	0.00747	0.058568	0.01356	0.07963	0.022686	0.007284	0.002508	0.002287	0.055517	0.005783	0.012233	0.007256	0.002244	0.00207
2.767	0.055898	0.040335	0.007513	0.05921	0.013426	0.080019	0.022368	0.007297	0.00251	0.002312	0.055519	0.005914	0.012311	0.007231	0.002251	0.00208
2.7675	0.055389	0.040331	0.007555	0.059851	0.013294	0.080403	0.022054	0.00731	0.002513	0.002336	0.055532	0.006046	0.012386	0.007206	0.002259	0.00209
2.768	0.05489	0.040335	0.007596	0.060492	0.013163	0.080782	0.021745	0.007323	0.002516	0.002361	0.055554	0.006181	0.012457	0.007181	0.002267	0.002101
2.7685	0.0544	0.040348	0.007637	0.061132	0.013035	0.081156	0.021442	0.007337	0.002519	0.002385	0.055586	0.006318	0.012525	0.007156	0.002275	0.002111
2.769	0.05392	0.04037	0.007677	0.061771	0.012908	0.081525	0.021144	0.00735	0.002523	0.002409	0.055629	0.006458	0.012589	0.007131	0.002284	0.002121
2.7695	0.05345	0.0404	0.007717	0.062409	0.012784	0.081889	0.020851	0.007363	0.002527	0.002433	0.055683	0.0066	0.01265	0.007107	0.002293	0.002132
2.77	0.052991	0.040439	0.007756	0.063046	0.012661	0.082249	0.020563	0.007377	0.002531	0.002458	0.055747	0.006745	0.012707	0.007082	0.002302	0.002142
2.7705	0.052542	0.040486	0.007794	0.063682	0.01254	0.082604	0.020281	0.00739	0.002535	0.002482	0.055822	0.006891	0.01276	0.007057	0.002312	0.002153
2.771	0.052105	0.040542	0.007832	0.064316	0.012422	0.082955	0.020004	0.007404	0.002539	0.002506	0.055909	0.007041	0.012809	0.007033	0.002322	0.002163
2.7715	0.051678	0.040606	0.007869	0.064949	0.012305	0.083301	0.019732	0.007418	0.002544	0.002529	0.056008	0.007193	0.012855	0.007009	0.002332	0.002174
2.772	0.051263	0.040678	0.007906	0.06558	0.01219	0.083643	0.019465	0.007432	0.002549	0.002553	0.056119	0.007347	0.012897	0.006985	0.002342	0.002185
2.7725	0.05086	0.040757	0.007942	0.066209	0.012078	0.083981	0.019203	0.007446	0.002554	0.002577	0.056243	0.007504	0.012935	0.006961	0.002353	0.002195
2.773	0.050469	0.040845	0.007977	0.066835	0.011967	0.084315	0.018947	0.00746	0.00256	0.0026	0.05638	0.007663	0.012969	0.006938	0.002364	0.002206
2.7735	0.05009	0.040941	0.008012	0.067459	0.011858	0.084644	0.018695	0.007475	0.002565	0.002623	0.05653	0.007825	0.012999	0.006915	0.002375	0.002216
2.774	0.049723	0.041043	0.008047	0.068081	0.011751	0.08497	0.018449	0.007489	0.002571	0.002646	0.056694	0.00799	0.013025	0.006892	0.002387	0.002227
2.7745	0.049369	0.041154	0.00808	0.0687	0.011646	0.085291	0.018208	0.007504	0.002577	0.002668	0.056873	0.008157	0.013047	0.00687	0.002398	0.002238
2.775	0.049027	0.041271	0.008113	0.069316	0.011544	0.085608	0.017972	0.007519	0.002584	0.002691	0.057067	0.008327	0.013065	0.006848	0.00241	0.002248
2.7755	0.048698	0.041396	0.008146	0.069929	0.011443	0.085922	0.017741	0.007534	0.00259	0.002713	0.057275	0.008499	0.01308	0.006827	0.002422	0.002258
2.776	0.048382	0.041527	0.008177	0.070539	0.011344	0.086231	0.017514	0.007549	0.002597	0.002735	0.057499	0.008674	0.01309	0.006806	0.002435	0.002269
2.7765	0.048079	0.041665	0.008208	0.071145	0.011247	0.086536	0.017293	0.007564	0.002604	0.002756	0.057739	0.008852	0.013096	0.006786	0.002447	0.002279
2.777	0.047789	0.041809	0.008239	0.071749	0.011152	0.086837	0.017077	0.007579	0.002611	0.002777	0.057996	0.009032	0.013099	0.006767	0.00246	0.002289
2.7775	0.047513	0.041959	0.008269	0.072348	0.011059	0.087135	0.016865	0.007595	0.002619	0.002798	0.058268	0.009215	0.013097	0.006748	0.002473	0.002299
2.778	0.04725	0.042116	0.008298	0.072945	0.010968	0.087428	0.016658	0.007611	0.002626	0.002819	0.058558	0.009401	0.013092	0.00673	0.002486	0.002309
2.7785	0.047	0.042278	0.008326	0.073537	0.01088	0.087717	0.016456	0.007627	0.002634	0.00284	0.058864	0.00959	0.013083	0.006712	0.0025	0.002319
2.779	0.046764	0.042445	0.008354	0.074126	0.010793	0.088003	0.016259	0.007643	0.002642	0.00286	0.059188	0.009781	0.013071	0.006696	0.002513	0.002329
2.7795	0.046541	0.042618	0.008381	0.074711	0.010708	0.088284	0.016066	0.007659	0.00265	0.002879	0.05953	0.009976	0.013056	0.00668	0.002527	0.002339
2.78	0.046332	0.042795	0.008408	0.075291	0.010626	0.088562	0.015878	0.007676	0.002658	0.002899	0.059889	0.010173	0.013037	0.006665	0.002541	0.002348
2.7805	0.046137	0.042977	0.008434	0.075868	0.010546	0.088835	0.015694	0.007692	0.002667	0.002918	0.060267	0.010373	0.013015	0.006651	0.002555	0.002358
2.781	0.045956	0.043164	0.008459	0.076441	0.010467	0.089104	0.015515	0.007709	0.002675	0.002937	0.060662	0.010576	0.01299	0.006637	0.002569	0.002367
2.7815	0.045789	0.043355	0.008483	0.07701	0.010391	0.089368	0.01534	0.007726	0.002684	0.002955	0.061076	0.010781	0.012961	0.006625	0.002583	0.002376
2.782	0.045636	0.043549	0.008508	0.077575	0.010317	0.089628	0.01517	0.007743	0.002693	0.002973	0.061509	0.01099	0.01293	0.006614	0.002597	0.002385
2.7825	0.045497	0.043747	0.008531	0.078136	0.010245	0.089884	0.015004	0.007761	0.002702	0.002991	0.06196	0.011202	0.012897	0.006604	0.002612	0.002393
2.783	0.045372	0.043948	0.008554	0.078693	0.010176	0.090135	0.014842	0.007778	0.002712	0.003009	0.062431	0.011416	0.01286	0.006595	0.002626	0.002402
2.7835	0.045261	0.044153	0.008576	0.079246	0.010108	0.09038	0.014684	0.007796	0.002721	0.003026	0.06292	0.011634	0.012822	0.006587	0.002641	0.00241
2.784	0.045164	0.04436	0.008598	0.079795	0.010043	0.090621	0.014531	0.007814	0.002731	0.003042	0.063428	0.011854	0.01278	0.00658	0.002656	0.002418
2.7845	0.045082	0.044569	0.008619	0.080341	0.00998	0.090857	0.014381	0.007832	0.00274	0.003059	0.063955	0.012078	0.012737	0.006574	0.00267	0.002426
2.785	0.045014	0.04478	0.008639	0.080882	0.009919	0.091088	0.014236	0.007851	0.00275	0.003075	0.064502	0.012304	0.012692	0.00657	0.002685	0.002434
2.7855	0.04496	0.044993	0.008659	0.08142	0.009861	0.091314	0.014094	0.007869	0.00276	0.003091	0.065067	0.012534	0.012644	0.006567	0.0027	0.002442
2.786	0.04492	0.045207	0.008678	0.081955	0.009804	0.091534	0.013956	0.007888	0.002771	0.003106	0.065652	0.012766	0.012595	0.006565	0.002714	0.002449
2.7865	0.044894	0.045422	0.008697	0.082485	0.00975	0.091748	0.013822	0.007907	0.002781	0.003122	0.066256	0.013001	0.012544	0.006565	0.002729	0.002456
2.787	0.044883	0.045638	0.008715	0.083013	0.009698	0.091957	0.013692	0.007926	0.002792	0.003137	0.066879	0.01324	0.012492	0.006565	0.002744	0.002463
2.7875	0.044885	0.045854	0.008732	0.083536	0.009648	0.09216	0.013565	0.007945	0.002802	0.003151	0.067522	0.013481	0.012438	0.006568	0.002759	0.00247
2.788	0.044902	0.04607	0.008749	0.084056	0.009601	0.092357	0.013442	0.007964	0.002813	0.003165	0.068183	0.013725	0.012382	0.006571	0.002774	0.002476
2.7885	0.044933	0.046286	0.008765	0.084573	0.009555	0.092547	0.013322	0.007983	0.002824	0.003179	0.068864	0.013972	0.012325	0.006577	0.002789	0.002482
2.789	0.044977	0.046502	0.008781	0.085086	0.009512	0.092732	0.013206	0.008002	0.002835	0.003193	0.069563	0.014222	0.012267	0.006583	0.002804	0.002488
2.7895	0.045035	0.046717	0.008796	0.085595	0.009471	0.092909	0.013093	0.008022	0.002846	0.003206	0.070281	0.014475	0.012208	0.006592	0.002819	0.002494
2.79	0.045107	0.04693	0.00881	0.086101	0.009433	0.09308	0.012983	0.008041	0.002857	0.003219	0.071018	0.014731	0.012148	0.006601	0.002833	0.002499
2.7905	0.045193	0.047143	0.008824	0.086602	0.009396	0.093245	0.012877	0.008061	0.002869	0.003232	0.071773	0.014989	0.012087	0.006613	0.002848	0.002504
2.791	0.045292	0.047354	0.008837	0.0871	0.009362	0.093403	0.012773	0.00808	0.00288	0.003244	0.072547	0.015251	0.012025	0.006625	0.002863	0.002509
2.7915	0.045404	0.047563	0.00885	0.087594	0.00933	0.093554	0.012673	0.008099	0.002892	0.003256	0.073339	0.015515	0.011963	0.00664	0.002878	0.002513
2.792	0.04553	0.047771	0.008862	0.088083	0.0093	0.093699	0.012575	0.008119	0.002903	0.003268	0.074149	0.015782	0.0119	0.006656	0.002893	0.002517
2.7925	0.045669	0.047976	0.008873	0.088569	0.009272	0.093837	0.012481	0.008138	0.002915	0.00328	0.074977	0.016051	0.011836	0.006674	0.002908	0.002521
2.793	0.045821	0.048179	0.008884	0.08905	0.009246	0.093969	0.012389	0.008158	0.002927	0.003291	0.075823	0.016323	0.011772	0.006694	0.002923	0.002524
2.7935	0.045985	0.048379	0.008894	0.089526	0.009223	0.094094	0.0123	0.008177	0.002939	0.003302	0.076686	0.016598	0.011707	0.006715	0.002938	0.002527
2.794	0.046162	0.048577	0.008904	0.089998	0.009202	0.094213	0.012214	0.008196	0.002951	0.003312	0.077566	0.016876	0.011642	0.006738	0.002953	0.00253
2.7945	0.046351	0.048771	0.008913	0.090465	0.009182	0.094326	0.01213	0.008215	0.002963	0.003323	0.078463	0.017156	0.011577	0.006763	0.002968	0.002532
2.795	0.046552	0.048962	0.008922	0.090928	0.009165	0.094432	0.012049	0.008234	0.002975	0.003333	0.079377	0.017439	0.011512	0.00679	0.002983	0.002535
2.7955	0.046766	0.04915	0.00893	0.091385	0.00915	0.094532	0.01197	0.008253	0.002987	0.003343	0.080307	0.017724	0.011447	0.006819	0.002998	0.002536
2.796	0.046991	0.049335	0.008938	0.091837	0.009137	0.094626	0.011894	0.008272	0.003	0.003352	0.081253	0.018012	0.011381	0.00685	0.003013	0.002538
2.7965	0.047227	0.049515	0.008944	0.092284	0.009126	0.094713	0.011821	0.008291	0.003012	0.003361	0.082215	0.018302	0.011316	0.006882	0.003028	0.002538
2.797	0.047475	0.049692	0.008951	0.092726	0.009118	0.094794	0.011749	0.008309	0.003025	0.00337	0.083192	0.018595	0.01125	0.006917	0.003044	0.002539
2.7975	0.047733	0.049865	0.008957	0.093161	0.009111	0.094869	0.01168	0.008328	0.003037	0.003379	0.084184	0.018889	0.011185	0.006954	0.003059	0.002539
2.798	0.048002	0.050034	0.008962	0.093592	0.009106	0.094938	0.011613	0.008347	0.00305	0.003388	0.08519	0.019187	0.01112	0.006992	0.003075	0.002539
2.7985	0.048282	0.0502	0.008967	0.094016	0.009103	0.095001	0.011548	0.008365	0.003063	0.003396	0.08621	0.019486	0.011055	0.007033	0.003091	0.002538
2.799	0.048571	0.050361	0.008972	0.094435	0.009102	0.095057	0.011485	0.008383	0.003076	0.003404	0.087243	0.019788	0.010991	0.007076	0.003107	0.002537
2.7995	0.04887	0.050517	0.008976	0.09485	0.009103	0.095107	0.011424	0.008402	0.003089	0.003411	0.08829	0.020091	0.010927	0.007121	0.003123	0.002536
2.8	0.049178	0.05067	0.00898	0.095259	0.009107	0.095151	0.011365	0.00842	0.003102	0.003419	0.089349	0.020397	0.010863	0.007168	0.003139	0.002534
2.8005	0.049496	0.050818	0.008984	0.095665	0.009112	0.095188	0.011308	0.008438	0.003115	0.003426	0.090419	0.020705	0.0108	0.007218	0.003155	0.002532
2.801	0.049822	0.050962	0.008989	0.096067	0.009119	0.09522	0.011252	0.008457	0.003128	0.003433	0.091501	0.021016	0.010737	0.00727	0.003172	0.002529
2.8015	0.050156	0.051101	0.008993	0.096467	0.009128	0.095245	0.011199	0.008475	0.003141	0.00344	0.092594	0.021328	0.010675	0.007324	0.003188	0.002526
2.802	0.050498	0.051236	0.008998	0.096864	0.009139	0.095263	0.011147	0.008494	0.003154	0.003446	0.093697	0.021643	0.010614	0.007381	0.003205	0.002523
2.8025	0.050848	0.051365	0.009003	0.097261	0.009152	0.095275	0.011097	0.008512	0.003167	0.003452	0.09481	0.021959	0.010553	0.00744	0.003222	0.002519
2.803	0.051204	0.05149	0.009009	0.097657	0.009166	0.09528	0.011048	0.008531	0.00318	0.003458	0.095931	0.022278	0.010492	0.007502	0.003239	0.002514
2.8035	0.051568	0.05161	0.009016	0.098054	0.009183	0.09528	0.011001	0.008549	0.003193	0.003464	0.097061	0.0226	0.010432	0.007566	0.003257	0.002509
2.804	0.051938	0.051724	0.009024	0.098454	0.009202	0.095273	0.010955	0.008568	0.003207	0.003469	0.098198	0.022924	0.010373	0.007633	0.003275	0.002504
2.8045	0.052313	0.051833	0.009034	0.098856	0.009222	0.09526	0.010911	0.008588	0.00322	0.003475	0.099342	0.02325	0.010315	0.007704	0.003293	0.002498
2.805	0.052695	0.051937	0.009045	0.099264	0.009244	0.095242	0.010869	0.008607	0.003233	0.00348	0.100492	0.023579	0.010257	0.007777	0.003312	0.002492
2.8055	0.053081	0.052036	0.009058	0.099677	0.009268	0.095217	0.010827	0.008627	0.003246	0.003484	0.101649	0.023911	0.0102	0.007853	0.00333	0.002485
2.806	0.053472	0.052128	0.009073	0.100097	0.009294	0.095187	0.010787	0.008647	0.00326	0.003489	0.10281	0.024245	0.010144	0.007933	0.00335	0.002478
2.8065	0.053868	0.052216	0.00909	0.100526	0.009321	0.095152	0.010749	0.008668	0.003273	0.003493	0.103976	0.024582	0.010089	0.008015	0.003369	0.00247
2.807	0.054267	0.052297	0.00911	0.100963	0.009351	0.095111	0.010711	0.008689	0.003286	0.003498	0.105146	0.024923	0.010034	0.008102	0.003389	0.002461
2.8075	0.05467	0.052372	0.009133	0.101412	0.009382	0.095065	0.010675	0.008711	0.003299	0.003501	0.106318	0.025266	0.009981	0.008192	0.00341	0.002453
2.808	0.055076	0.052441	0.009158	0.101872	0.009414	0.095014	0.01064	0.008734	0.003312	0.003505	0.107494	0.025613	0.009928	0.008285	0.00343	0.002443
2.8085	0.055485	0.052504	0.009187	0.102345	0.009448	0.094958	0.010606	0.008757	0.003325	0.003509	0.108672	0.025964	0.009876	0.008382	0.003452	0.002433
2.809	0.055897	0.05256	0.009219	0.102831	0.009484	0.094897	0.010573	0.008781	0.003338	0.003512	0.109851	0.026318	0.009824	0.008484	0.003473	0.002422
2.8095	0.05631	0.05261	0.009255	0.103333	0.009521	0.09483	0.010541	0.008805	0.003351	0.003515	0.111031	0.026677	0.009774	0.008589	0.003496	0.002411
2.81	0.056726	0.052654	0.009295	0.103851	0.00956	0.09476	0.01051	0.008831	0.003364	0.003518	0.112211	0.02704	0.009724	0.008698	0.003518	0.0024
2.8105	0.057144	0.05269	0.009339	0.104386	0.0096	0.094684	0.010479	0.008857	0.003376	0.003521	0.113391	0.027407	0.009675	0.008811	0.003542	0.002387
2.811	0.057563	0.052721	0.009387	0.104938	0.009642	0.094605	0.01045	0.008884	0.003389	0.003524	0.114569	0.027778	0.009626	0.008929	0.003565	0.002374
2.8115	0.057983	0.052744	0.00944	0.10551	0.009685	0.094521	0.010421	0.008913	0.003401	0.003526	0.115745	0.028155	0.009579	0.009051	0.00359	0.002361
2.812	0.058404	0.052761	0.009498	0.106102	0.00973	0.094433	0.010393	0.008942	0.003414	0.003528	0.116919	0.028536	0.009532	0.009178	0.003614	0.002347
2.8125	0.058826	0.052771	0.00956	0.106714	0.009776	0.094342	0.010365	0.008973	0.003426	0.003531	0.11809	0.028922	0.009486	0.009309	0.00364	0.002332
2.813	0.059248	0.052774	0.009628	0.107348	0.009823	0.094246	0.010338	0.009005	0.003438	0.003533	0.119256	0.029313	0.009441	0.009445	0.003666	0.002316
2.8135	0.059671	0.052771	0.009701	0.108005	0.009872	0.094148	0.010312	0.009038	0.00345	0.003534	0.120418	0.02971	0.009396	0.009586	0.003692	0.0023
2.814	0.060094	0.052761	0.009779	0.108685	0.009922	0.094046	0.010286	0.009072	0.003461	0.003536	0.121575	0.030112	0.009352	0.009731	0.003719	0.002283
2.8145	0.060518	0.052746	0.009864	0.109389	0.009973	0.093941	0.010261	0.009108	0.003473	0.003538	0.122726	0.03052	0.009308	0.009882	0.003747	0.002266
2.815	0.060942	0.052724	0.009954	0.110118	0.010025	0.093833	0.010236	0.009146	0.003485	0.003539	0.123872	0.030933	0.009266	0.010038	0.003775	0.002248
2.8155	0.061367	0.052696	0.010051	0.110873	0.010079	0.093722	0.010211	0.009185	0.003496	0.00354	0.125013	0.031353	0.009223	0.010199	0.003804	0.002229
2.816	0.061793	0.052663	0.010154	0.111654	0.010133	0.093608	0.010186	0.009225	0.003507	0.003542	0.126148	0.031778	0.009182	0.010366	0.003834	0.002209
2.8165	0.062219	0.052624	0.010264	0.112463	0.010189	0.093492	0.010162	0.009268	0.003518	0.003543	0.127276	0.032209	0.009141	0.010538	0.003864	0.002189
2.817	0.062646	0.052579	0.010381	0.1133	0.010246	0.093373	0.010138	0.009312	0.003529	0.003544	0.128399	0.032647	0.0091	0.010715	0.003895	0.002168
2.8175	0.063073	0.05253	0.010504	0.114166	0.010304	0.093251	0.010114	0.009358	0.003539	0.003544	0.129515	0.033091	0.00906	0.010898	0.003927	0.002146
2.818	0.063501	0.052476	0.010635	0.115061	0.010363	0.093128	0.01009	0.009405	0.00355	0.003545	0.130626	0.033541	0.00902	0.011088	0.003959	0.002124
2.8185	0.06393	0.052417	0.010773	0.115986	0.010423	0.093002	0.010067	0.009455	0.00356	0.003546	0.131729	0.033998	0.008981	0.011283	0.003993	0.002101
2.819	0.06436	0.052354	0.010919	0.116942	0.010484	0.092875	0.010043	0.009507	0.00357	0.003546	0.132827	0.034462	0.008942	0.011484	0.004026	0.002076
2.8195	0.064791	0.052286	0.011073	0.117929	0.010546	0.092746	0.010019	0.009561	0.00358	0.003547	0.133918	0.034932	0.008903	0.011691	0.004061	0.002052
2.82	0.065223	0.052215	0.011235	0.118948	0.010609	0.092615	0.009995	0.009617	0.00359	0.003547	0.135004	0.035409	0.008865	0.011905	0.004096	0.002026
2.8205	0.065656	0.052141	0.011406	0.119999	0.010673	0.092483	0.009972	0.009676	0.0036	0.003548	0.136084	0.035892	0.008827	0.012125	0.004132	0.002
2.821	0.066092	0.052063	0.011584	0.121083	0.010738	0.09235	0.009948	0.009736	0.003609	0.003548	0.137159	0.036383	0.00879	0.012351	0.004169	0.001973
2.8215	0.066529	0.051983	0.011771	0.122201	0.010804	0.092216	0.009924	0.009799	0.003619	0.003548	0.13823	0.036881	0.008753	0.012584	0.004207	0.001945
2.822	0.066968	0.0519	0.011968	0.123352	0.01087	0.09208	0.0099	0.009865	0.003628	0.003548	0.139297	0.037385	0.008716	0.012824	0.004245	0.001916
2.8225	0.06741	0.051815	0.012173	0.124537	0.010937	0.091944	0.009876	0.009933	0.003637	0.003549	0.140361	0.037896	0.008679	0.013071	0.004284	0.001886
2.823	0.067854	0.051728	0.012387	0.125756	0.011006	0.091806	0.009852	0.010004	0.003646	0.003549	0.141421	0.038415	0.008643	0.013326	0.004324	0.001856
2.8235	0.068301	0.05164	0.012611	0.127011	0.011074	0.091668	0.009828	0.010077	0.003654	0.003549	0.142479	0.03894	0.008607	0.013587	0.004364	0.001824
2.824	0.068751	0.051551	0.012845	0.1283	0.011144	0.091529	0.009804	0.010153	0.003663	0.003549	0.143535	0.039472	0.008571	0.013855	0.004406	0.001792
2.8245	0.069204	0.051462	0.013089	0.129625	0.011215	0.091389	0.00978	0.010232	0.003671	0.003549	0.14459	0.040012	0.008535	0.014131	0.004448	0.001759
2.825	0.069661	0.051372	0.013342	0.130984	0.011286	0.091249	0.009756	0.010313	0.003679	0.003549	0.145642	0.040558	0.008499	0.014415	0.004491	0.001726
2.8255	0.070121	0.051283	0.013606	0.13238	0.011358	0.091109	0.009731	0.010398	0.003687	0.003548	0.146694	0.041111	0.008464	0.014706	0.004534	0.001691
2.826	0.070584	0.051194	0.01388	0.133811	0.01143	0.090968	0.009707	0.010486	0.003695	0.003548	0.147744	0.041671	0.008428	0.015005	0.004579	0.001655
2.8265	0.071051	0.051107	0.014165	0.135278	0.011504	0.090827	0.009682	0.010576	0.003702	0.003548	0.148793	0.042237	0.008393	0.015313	0.004624	0.001619
2.827	0.071522	0.05102	0.014461	0.136781	0.011578	0.090687	0.009657	0.01067	0.00371	0.003548	0.149842	0.04281	0.008358	0.015628	0.00467	0.001582
2.8275	0.071997	0.050936	0.014768	0.13832	0.011652	0.090547	0.009633	0.010768	0.003717	0.003548	0.150889	0.04339	0.008323	0.015951	0.004716	0.001544
2.828	0.072476	0.050853	0.015086	0.139895	0.011727	0.090407	0.009608	0.010868	0.003724	0.003548	0.151936	0.043977	0.008288	0.016283	0.004763	0.001505
2.8285	0.072958	0.050773	0.015415	0.141506	0.011803	0.090267	0.009583	0.010972	0.003731	0.003548	0.152983	0.04457	0.008254	0.016623	0.004811	0.001465
2.829	0.073445	0.050695	0.015756	0.143153	0.01188	0.090128	0.009559	0.01108	0.003738	0.003548	0.154028	0.045169	0.008219	0.016972	0.00486	0.001425
2.8295	0.073935	0.050621	0.016109	0.144835	0.011956	0.089989	0.009534	0.011191	0.003744	0.003548	0.155073	0.045774	0.008185	0.017329	0.00491	0.001383
2.83	0.074429	0.05055	0.016474	0.146554	0.012034	0.089851	0.009509	0.011305	0.00375	0.003548	0.156117	0.046386	0.00815	0.017695	0.00496	0.001341
2.8305	0.074928	0.050483	0.016851	0.148308	0.012112	0.089714	0.009485	0.011423	0.003756	0.003548	0.157159	0.047003	0.008116	0.01807	0.00501	0.001298
2.831	0.07543	0.050419	0.01724	0.150098	0.01219	0.089577	0.00946	0.011545	0.003762	0.003548	0.1582	0.047626	0.008081	0.018453	0.005062	0.001254
2.8315	0.075936	0.050361	0.017641	0.151924	0.012269	0.089441	0.009436	0.011671	0.003768	0.003548	0.15924	0.048256	0.008047	0.018846	0.005114	0.001209
2.832	0.076446	0.050307	0.018055	0.153784	0.012348	0.089305	0.009412	0.011801	0.003773	0.003548	0.160277	0.04889	0.008012	0.019248	0.005166	0.001163
2.8325	0.076959	0.050258	0.018482	0.15568	0.012428	0.08917	0.009388	0.011934	0.003778	0.003548	0.161313	0.04953	0.007978	0.019659	0.00522	0.001117
2.833	0.077476	0.050214	0.018922	0.157611	0.012508	0.089036	0.009364	0.012072	0.003783	0.003548	0.162346	0.050176	0.007943	0.020079	0.005273	0.00107
2.8335	0.077997	0.050176	0.019375	0.159575	0.012588	0.088902	0.009341	0.012213	0.003787	0.003548	0.163376	0.050826	0.007909	0.020509	0.005328	0.001021
2.834	0.078521	0.050144	0.019841	0.161574	0.012669	0.088769	0.009317	0.012359	0.003791	0.003548	0.164402	0.051482	0.007874	0.020948	0.005383	0.000973
2.8345	0.079048	0.050118	0.020321	0.163607	0.01275	0.088637	0.009294	0.012509	0.003795	0.003548	0.165425	0.052142	0.007839	0.021396	0.005438	0.000923
2.835	0.079578	0.050098	0.020814	0.165672	0.012831	0.088505	0.009271	0.012663	0.003799	0.003548	0.166443	0.052807	0.007804	0.021855	0.005494	0.000872
2.8355	0.080111	0.050084	0.021321	0.16777	0.012913	0.088374	0.009248	0.012821	0.003802	0.003548	0.167457	0.053477	0.007769	0.022322	0.00555	0.000821
2.836	0.080647	0.050078	0.021842	0.1699	0.012994	0.088243	0.009226	0.012984	0.003805	0.003548	0.168464	0.054151	0.007734	0.0228	0.005606	0.000769
2.8365	0.081185	0.050078	0.022377	0.172062	0.013077	0.088114	0.009204	0.013151	0.003808	0.003548	0.169466	0.05483	0.007699	0.023287	0.005663	0.000716
2.837	0.081726	0.050086	0.022926	0.174255	0.013159	0.087985	0.009181	0.013322	0.00381	0.003547	0.170461	0.055512	0.007664	0.023784	0.005721	0.000662
2.8375	0.082269	0.0501	0.023489	0.176478	0.013241	0.087856	0.009159	0.013498	0.003812	0.003547	0.171449	0.056199	0.007629	0.024291	0.005778	0.000608
2.838	0.082813	0.050123	0.024067	0.17873	0.013324	0.087728	0.009138	0.013679	0.003814	0.003547	0.172429	0.05689	0.007593	0.024807	0.005836	0.000553
2.8385	0.08336	0.050153	0.02466	0.181012	0.013407	0.0876	0.009116	0.013865	0.003816	0.003547	0.173401	0.057585	0.007557	0.025334	0.005894	0.000497
2.839	0.083908	0.050191	0.025267	0.183322	0.01349	0.087473	0.009095	0.014055	0.003817	0.003547	0.174363	0.058284	0.007522	0.02587	0.005953	0.000441
2.8395	0.084457	0.050238	0.025889	0.185659	0.013573	0.087347	0.009073	0.01425	0.003817	0.003547	0.175317	0.058987	0.007486	0.026417	0.006011	0.000384
2.84	0.085007	0.050292	0.026526	0.188022	0.013656	0.087221	0.009052	0.014451	0.003818	0.003547	0.17626	0.059693	0.00745	0.026973	0.00607	0.000326
2.8405	0.085557	0.050355	0.027178	0.190411	0.01374	0.087095	0.009031	0.014657	0.003818	0.003546	0.177194	0.060403	0.007414	0.02754	0.006129	0.000268
2.841	0.086108	0.050427	0.027846	0.192825	0.013823	0.08697	0.009011	0.014867	0.003818	0.003546	0.178117	0.061117	0.007377	0.028116	0.006188	0.000209
2.8415	0.086659	0.050507	0.028529	0.195263	0.013907	0.086846	0.00899	0.015084	0.003817	0.003546	0.179029	0.061834	0.007341	0.028703	0.006247	0.00015
2.842	0.08721	0.050596	0.029227	0.197724	0.01399	0.086722	0.00897	0.015306	0.003816	0.003545	0.179931	0.062555	0.007304	0.0293	0.006306	9e-05
2.8425	0.087759	0.050695	0.029942	0.200206	0.014073	0.086599	0.008949	0.015533	0.003815	0.003545	0.180821	0.063279	0.007267	0.029907	0.006365	2.9e-05
2.843	0.088308	0.050802	0.030672	0.20271	0.014156	0.086476	0.008929	0.015766	0.003813	0.003544	0.1817	0.064007	0.00723	0.030523	0.006423	0
2.8435	0.088856	0.050918	0.031418	0.205234	0.014239	0.086353	0.008909	0.016005	0.003811	0.003544	0.182567	0.064738	0.007193	0.03115	0.006482	0
2.844	0.089402	0.051044	0.03218	0.207778	0.014322	0.086231	0.00889	0.016251	0.003809	0.003543	0.183422	0.065473	0.007156	0.031787	0.00654	0
2.8445	0.089946	0.051178	0.032958	0.21034	0.014404	0.086109	0.00887	0.016502	0.003806	0.003543	0.184265	0.066211	0.007119	0.032434	0.006599	0
2.845	0.090487	0.051322	0.033752	0.21292	0.014486	0.085988	0.008851	0.016759	0.003803	0.003542	0.185096	0.066952	0.007081	0.03309	0.006657	0
2.8455	0.091026	0.051476	0.034563	0.215517	0.014568	0.085866	0.008832	0.017023	0.003799	0.003541	0.185915	0.067697	0.007043	0.033757	0.006714	0
2.846	0.091562	0.051639	0.035391	0.218129	0.014649	0.085744	0.008813	0.017293	0.003796	0.003541	0.186721	0.068445	0.007005	0.034433	0.006772	0
2.8465	0.092094	0.051811	0.036235	0.220757	0.01473	0.085622	0.008794	0.01757	0.003792	0.00354	0.187514	0.069196	0.006966	0.035119	0.006829	0
2.847	0.092623	0.051994	0.037095	0.223399	0.01481	0.0855	0.008776	0.017853	0.003788	0.003539	0.188295	0.06995	0.006928	0.035815	0.006885	0
2.8475	0.093147	0.052186	0.037973	0.226054	0.01489	0.085378	0.008757	0.018144	0.003783	0.003538	0.189063	0.070707	0.006889	0.036521	0.006941	0
2.848	0.093666	0.052388	0.038867	0.228722	0.01497	0.085255	0.008739	0.018441	0.003778	0.003537	0.189818	0.071467	0.00685	0.037236	0.006997	0
2.8485	0.094179	0.0526	0.039778	0.231402	0.015048	0.085132	0.008721	0.018745	0.003773	0.003536	0.190559	0.072231	0.00681	0.03796	0.007052	0
2.849	0.094687	0.052823	0.040707	0.234092	0.015126	0.085008	0.008704	0.019056	0.003767	0.003534	0.191287	0.072998	0.00677	0.038694	0.007106	0
2.8495	0.095189	0.053055	0.041652	0.236793	0.015203	0.084883	0.008686	0.019375	0.003761	0.003533	0.192001	0.073768	0.00673	0.039437	0.00716	0
2.85	0.095684	0.053298	0.042615	0.239503	0.01528	0.084758	0.008668	0.019701	0.003755	0.003531	0.192701	0.074542	0.006689	0.04019	0.007212	0
2.8505	0.096171	0.053552	0.043594	0.242221	0.015355	0.084632	0.008651	0.020035	0.003748	0.00353	0.193385	0.075318	0.006648	0.040951	0.007264	0
2.851	0.096651	0.053815	0.044591	0.244946	0.01543	0.084505	0.008633	0.020376	0.003741	0.003528	0.194055	0.076098	0.006607	0.041722	0.007316	0
2.8515	0.097123	0.054089	0.045606	0.247678	0.015504	0.084377	0.008616	0.020725	0.003734	0.003526	0.194709	0.076882	0.006565	0.042501	0.007366	0
2.852	0.097585	0.054374	0.046637	0.250415	0.015576	0.084247	0.008599	0.021082	0.003726	0.003524	0.195347	0.077668	0.006523	0.043289	0.007416	0
2.8525	0.098039	0.054669	0.047687	0.253157	0.015648	0.084116	0.008581	0.021447	0.003719	0.003522	0.195969	0.078458	0.00648	0.044086	0.007464	0
2.853	0.098482	0.054974	0.048754	0.255902	0.015719	0.083983	0.008564	0.02182	0.00371	0.003519	0.196573	0.079251	0.006437	0.044892	0.007512	0
2.8535	0.098916	0.05529	0.049838	0.25865	0.015788	0.083849	0.008546	0.022202	0.003702	0.003517	0.197159	0.080047	0.006393	0.045706	0.007558	0
2.854	0.099339	0.055616	0.050941	0.2614	0.015856	0.083712	0.008529	0.022592	0.003693	0.003514	0.197726	0.080846	0.006349	0.046529	0.007603	0
2.8545	0.09975	0.055953	0.052061	0.264151	0.015923	0.083573	0.008512	0.022991	0.003683	0.003511	0.198275	0.081649	0.006305	0.04736	0.007648	0
2.855	0.10015	0.056301	0.053199	0.266901	0.015989	0.083432	0.008494	0.023399	0.003674	0.003508	0.198804	0.082455	0.00626	0.048199	0.007691	0
2.8555	0.100537	0.056658	0.054355	0.269651	0.016054	0.083288	0.008476	0.023816	0.003664	0.003504	0.199314	0.083265	0.006214	0.049046	0.007733	0
2.856	0.100912	0.057027	0.055528	0.272399	0.016117	0.083141	0.008458	0.024242	0.003653	0.003501	0.199803	0.084077	0.006168	0.049902	0.007774	0
2.8565	0.101275	0.057406	0.05672	0.275144	0.016179	0.082991	0.00844	0.024678	0.003642	0.003497	0.20027	0.084894	0.006122	0.050765	0.007813	0
2.857	0.101623	0.057796	0.05793	0.277884	0.01624	0.082837	0.008422	0.025123	0.003631	0.003493	0.200717	0.085714	0.006074	0.051636	0.007851	0
2.8575	0.101959	0.058197	0.059157	0.28062	0.0163	0.08268	0.008404	0.025577	0.00362	0.003488	0.201141	0.086537	0.006027	0.052514	0.007888	0
2.858	0.102281	0.058609	0.060402	0.283348	0.016358	0.082519	0.008386	0.026042	0.003608	0.003484	0.201542	0.087364	0.005978	0.0534	0.007924	0
2.8585	0.10259	0.059032	0.061665	0.28607	0.016415	0.082354	0.008367	0.026516	0.003595	0.003479	0.20192	0.088195	0.005929	0.054293	0.007958	0
2.859	0.102886	0.059466	0.062946	0.288782	0.016471	0.082184	0.008348	0.027	0.003583	0.003474	0.202275	0.08903	0.005879	0.055193	0.007991	0
2.8595	0.10317	0.059912	0.064245	0.291484	0.016525	0.08201	0.00833	0.027495	0.00357	0.003469	0.202606	0.089869	0.005829	0.056101	0.008022	0
2.86	0.10344	0.06037	0.065561	0.294174	0.016579	0.081831	0.008311	0.027999	0.003556	0.003463	0.202913	0.090712	0.005778	0.057015	0.008053	0
2.8605	0.103699	0.060839	0.066895	0.296852	0.016631	0.081647	0.008293	0.028515	0.003543	0.003457	0.203196	0.091558	0.005726	0.057936	0.008081	0
2.861	0.103946	0.06132	0.068246	0.299517	0.016681	0.081457	0.008274	0.02904	0.003528	0.003451	0.203456	0.092408	0.005674	0.058864	0.008108	0
2.8615	0.104181	0.061813	0.069615	0.302167	0.016731	0.081262	0.008256	0.029576	0.003514	0.003445	0.203693	0.093262	0.005621	0.059798	0.008134	0
2.862	0.104405	0.062319	0.071001	0.304801	0.016779	0.081061	0.008238	0.030123	0.003499	0.003439	0.203907	0.094119	0.005568	0.060739	0.008158	0
2.8625	0.104618	0.062837	0.072404	0.307419	0.016826	0.080853	0.00822	0.030681	0.003484	0.003432	0.204099	0.094981	0.005514	0.061686	0.008181	0
2.863	0.10482	0.063368	0.073824	0.310018	0.016872	0.080639	0.008203	0.03125	0.003468	0.003425	0.20427	0.095845	0.005459	0.062639	0.008202	0
2.8635	0.105012	0.063912	0.075261	0.312598	0.016917	0.080417	0.008186	0.031829	0.003453	0.003418	0.204419	0.096713	0.005404	0.063598	0.008222	0
2.864	0.105195	0.064468	0.076715	0.315158	0.016961	0.080189	0.00817	0.03242	0.003436	0.00341	0.204547	0.097584	0.005348	0.064563	0.00824	0
2.8645	0.105368	0.065038	0.078185	0.317697	0.017004	0.079953	0.008154	0.033022	0.00342	0.003403	0.204656	0.098458	0.005291	0.065534	0.008257	0
2.865	0.105533	0.065622	0.079671	0.320214	0.017045	0.079709	0.008139	0.033635	0.003403	0.003394	0.204746	0.099335	0.005235	0.06651	0.008272	0
2.8655	0.105691	0.06622	0.081173	0.322708	0.017086	0.079458	0.008125	0.034259	0.003386	0.003386	0.204817	0.100216	0.005177	0.067492	0.008286	0
2.866	0.105842	0.066832	0.082691	0.325181	0.017126	0.0792	0.008112	0.034894	0.003368	0.003378	0.204872	0.101099	0.005119	0.068479	0.008299	0
2.8665	0.105987	0.067458	0.084225	0.327631	0.017166	0.078933	0.0081	0.035541	0.003351	0.003369	0.20491	0.101985	0.005061	0.069472	0.00831	0
2.867	0.106127	0.068099	0.085774	0.330061	0.017204	0.078659	0.00809	0.036199	0.003333	0.00336	0.204933	0.102873	0.005002	0.070469	0.008319	0
2.8675	0.106264	0.068754	0.087338	0.332469	0.017243	0.078378	0.008081	0.036868	0.003314	0.003351	0.204942	0.103765	0.004942	0.071471	0.008328	0
2.868	0.106397	0.069425	0.088918	0.334857	0.017281	0.078089	0.008073	0.037549	0.003296	0.003341	0.204938	0.10466	0.004883	0.072478	0.008335	0
2.8685	0.106527	0.070111	0.090512	0.337226	0.017318	0.077793	0.008068	0.038242	0.003277	0.003331	0.204923	0.105557	0.004822	0.07349	0.00834	0
2.869	0.106656	0.070812	0.09212	0.339577	0.017356	0.077489	0.008064	0.038945	0.003258	0.003321	0.204897	0.106458	0.004762	0.074505	0.008345	0
2.8695	0.106785	0.071529	0.093743	0.341909	0.017393	0.077177	0.008062	0.039661	0.003239	0.003311	0.204862	0.107362	0.004701	0.075525	0.008348	0
2.87	0.106913	0.072261	0.095379	0.344224	0.01743	0.076859	0.008063	0.040388	0.00322	0.003301	0.20482	0.108268	0.00464	0.076549	0.00835	0
2.8705	0.107042	0.07301	0.09703	0.346523	0.017468	0.076532	0.008066	0.041126	0.0032	0.00329	0.20477	0.109177	0.004579	0.077576	0.00835	0
2.871	0.107173	0.073775	0.098693	0.348807	0.017506	0.076199	0.008072	0.041877	0.003181	0.00328	0.204715	0.11009	0.004518	0.078607	0.00835	0
2.8715	0.107306	0.074556	0.10037	0.351077	0.017544	0.075858	0.00808	0.042638	0.003161	0.003269	0.204655	0.111005	0.004456	0.079641	0.008348	0
2.872	0.107441	0.075354	0.10206	0.353334	0.017583	0.07551	0.008091	0.043412	0.003141	0.003257	0.204592	0.111923	0.004395	0.080678	0.008346	0
2.8725	0.107581	0.076168	0.103762	0.355579	0.017622	0.075156	0.008105	0.044197	0.003121	0.003246	0.204527	0.112844	0.004333	0.081717	0.008342	0
2.873	0.107724	0.076999	0.105477	0.357812	0.017663	0.074795	0.008123	0.044994	0.003101	0.003234	0.20446	0.113768	0.004272	0.082759	0.008337	0
2.8735	0.107872	0.077847	0.107204	0.360035	0.017704	0.074427	0.008143	0.045802	0.003081	0.003222	0.204393	0.114695	0.00421	0.083803	0.008331	0
2.874	0.108026	0.078712	0.108943	0.362248	0.017746	0.074053	0.008168	0.046621	0.00306	0.00321	0.204326	0.115625	0.004149	0.084849	0.008324	0
2.8745	0.108185	0.079594	0.110694	0.364452	0.01779	0.073674	0.008196	0.047453	0.00304	0.003198	0.204261	0.116559	0.004088	0.085896	0.008316	0
2.875	0.10835	0.080493	0.112455	0.366649	0.017835	0.073288	0.008228	0.048295	0.003019	0.003185	0.204198	0.117495	0.004028	0.086945	0.008308	0
2.8755	0.108523	0.08141	0.114228	0.36884	0.017882	0.072898	0.008264	0.049149	0.002999	0.003173	0.204137	0.118434	0.003967	0.087996	0.008298	0
2.876	0.108702	0.082344	0.116011	0.371024	0.01793	0.072501	0.008304	0.050015	0.002979	0.00316	0.204081	0.119375	0.003907	0.089047	0.008288	0
2.8765	0.108889	0.083295	0.117804	0.373203	0.017981	0.0721	0.008349	0.050892	0.002958	0.003146	0.20403	0.12032	0.003848	0.090099	0.008277	0
2.877	0.109085	0.084263	0.119607	0.375377	0.018033	0.071694	0.008399	0.051779	0.002938	0.003133	0.203984	0.121267	0.003789	0.091151	0.008265	0
2.8775	0.109288	0.085249	0.12142	0.377547	0.018088	0.071283	0.008453	0.052678	0.002917	0.003119	0.203945	0.122217	0.00373	0.092203	0.008252	0
2.878	0.1095	0.086252	0.123241	0.379714	0.018146	0.070868	0.008513	0.053588	0.002897	0.003105	0.203913	0.123169	0.003672	0.093256	0.008238	0
2.8785	0.109722	0.087273	0.125071	0.381877	0.018206	0.070448	0.008577	0.054509	0.002876	0.003091	0.20389	0.124124	0.003615	0.094308	0.008224	0
2.879	0.109953	0.088311	0.126908	0.384038	0.018269	0.070025	0.008648	0.055441	0.002856	0.003077	0.203875	0.125081	0.003558	0.095359	0.008209	0
2.8795	0.110193	0.089367	0.128754	0.386197	0.018335	0.069597	0.008723	0.056383	0.002835	0.003062	0.20387	0.12604	0.003502	0.09641	0.008193	0
2.88	0.110444	0.09044	0.130606	0.388353	0.018404	0.069166	0.008805	0.057336	0.002815	0.003047	0.203875	0.127001	0.003447	0.09746	0.008177	0
2.8805	0.110705	0.09153	0.132464	0.390507	0.018477	0.068731	0.008892	0.058299	0.002795	0.003032	0.203892	0.127965	0.003393	0.098509	0.00816	0
2.881	0.110976	0.092638	0.134329	0.39266	0.018553	0.068293	0.008986	0.059273	0.002775	0.003017	0.203919	0.12893	0.003339	0.099557	0.008143	0
2.8815	0.111258	0.093763	0.136198	0.394811	0.018632	0.067853	0.009086	0.060257	0.002755	0.003001	0.203958	0.129898	0.003286	0.100603	0.008125	0
2.882	0.111551	0.094905	0.138072	0.396959	0.018716	0.06741	0.009193	0.06125	0.002735	0.002986	0.204009	0.130867	0.003235	0.101649	0.008107	0
2.8825	0.111855	0.096065	0.13995	0.399105	0.018803	0.066965	0.009306	0.062254	0.002715	0.002969	0.204073	0.131838	0.003184	0.102693	0.008088	0
2.883	0.112171	0.097242	0.14183	0.401249	0.018895	0.066519	0.009426	0.063267	0.002696	0.002953	0.20415	0.132811	0.003134	0.103737	0.008069	0
2.8835	0.112497	0.098437	0.143714	0.40339	0.01899	0.066071	0.009553	0.06429	0.002676	0.002936	0.204239	0.133785	0.003086	0.10478	0.00805	0
2.884	0.112836	0.09965	0.145599	0.405527	0.01909	0.065621	0.009687	0.065322	0.002657	0.002919	0.204343	0.134761	0.003038	0.105823	0.008031	0
2.8845	0.113187	0.10088	0.147485	0.407662	0.019195	0.065171	0.009829	0.066363	0.002638	0.002902	0.204459	0.135739	0.002992	0.106866	0.008012	0
2.885	0.113549	0.102127	0.149371	0.409792	0.019304	0.06472	0.009978	0.067413	0.002619	0.002885	0.20459	0.136717	0.002947	0.10791	0.007993	0
2.8855	0.113924	0.103393	0.151257	0.411919	0.019418	0.064269	0.010135	0.068471	0.002601	0.002867	0.204734	0.137697	0.002903	0.108954	0.007974	0
2.886	0.114311	0.104676	0.153142	0.414043	0.019537	0.063818	0.0103	0.069538	0.002583	0.002849	0.204893	0.138677	0.002861	0.11	0.007954	0
2.8865	0.114712	0.105976	0.155025	0.416162	0.019661	0.063366	0.010472	0.070612	0.002565	0.00283	0.205066	0.139658	0.002819	0.111047	0.007935	0
2.887	0.115125	0.107294	0.156905	0.418277	0.019791	0.062915	0.010654	0.071695	0.002547	0.002812	0.205254	0.14064	0.00278	0.112096	0.007916	0
2.8875	0.115551	0.10863	0.158782	0.420388	0.019925	0.062465	0.010843	0.072785	0.002529	0.002793	0.205456	0.141623	0.002742	0.113146	0.007898	0
2.888	0.115991	0.109983	0.160655	0.422493	0.020066	0.062016	0.011041	0.073883	0.002512	0.002773	0.205672	0.142607	0.002705	0.114199	0.007879	0
2.8885	0.116444	0.111354	0.162523	0.424592	0.020212	0.061568	0.011248	0.074987	0.002495	0.002754	0.205904	0.143591	0.00267	0.115254	0.007861	0
2.889	0.116911	0.112742	0.164386	0.426685	0.020364	0.061121	0.011464	0.076099	0.002479	0.002734	0.20615	0.144577	0.002637	0.116313	0.007844	0
2.8895	0.117392	0.114147	0.166241	0.428771	0.020523	0.060676	0.011689	0.077217	0.002463	0.002713	0.20641	0.145564	0.002605	0.117375	0.007826	0
2.89	0.117887	0.11557	0.168089	0.430848	0.020688	0.060234	0.011923	0.078341	0.002447	0.002693	0.206686	0.146552	0.002575	0.118441	0.00781	0
2.8905	0.118396	0.11701	0.169929	0.432916	0.020859	0.059794	0.012167	0.079472	0.002432	0.002672	0.206975	0.147541	0.002547	0.119512	0.007793	0
2.891	0.11892	0.118467	0.171761	0.434974	0.021038	0.059356	0.012421	0.080609	0.002417	0.00265	0.20728	0.148531	0.002521	0.120588	0.007778	0
2.8915	0.119458	0.119941	0.173582	0.437021	0.021223	0.058922	0.012684	0.081752	0.002403	0.002629	0.207599	0.149523	0.002496	0.12167	0.007763	0
2.892	0.12001	0.121432	0.175393	0.439055	0.021415	0.05849	0.012958	0.0829	0.002389	0.002606	0.207932	0.150516	0.002474	0.122758	0.007748	0
2.8925	0.120578	0.12294	0.177192	0.441077	0.021614	0.058062	0.013241	0.084055	0.002376	0.002584	0.208281	0.15151	0.002454	0.123852	0.007735	0
2.893	0.12116	0.124465	0.178979	0.443086	0.021821	0.057637	0.013535	0.085214	0.002363	0.002561	0.208644	0.152505	0.002436	0.124954	0.007722	0
2.8935	0.121758	0.126006	0.180754	0.44508	0.022036	0.057217	0.01384	0.086378	0.002351	0.002538	0.209022	0.153501	0.00242	0.126062	0.007711	0
2.894	0.122372	0.127565	0.182515	0.447061	0.022258	0.0568	0.014155	0.087548	0.002339	0.002514	0.209414	0.154498	0.002407	0.127178	0.0077	2.6e-05
2.8945	0.123001	0.129141	0.184261	0.449027	0.022488	0.056388	0.014481	0.088722	0.002328	0.002489	0.209821	0.155496	0.002396	0.128302	0.00769	0.000266
2.895	0.123646	0.130733	0.185993	0.450978	0.022726	0.055981	0.014818	0.089901	0.002317	0.002465	0.210243	0.156494	0.002387	0.129434	0.007681	0.000516
2.8955	0.124309	0.132342	0.187709	0.452913	0.022972	0.055579	0.015166	0.091084	0.002307	0.00244	0.21068	0.157493	0.002381	0.130574	0.007674	0.000776
2.896	0.124988	0.133968	0.189408	0.454831	0.023226	0.055181	0.015525	0.092271	0.002298	0.002414	0.21113	0.158491	0.002378	0.131722	0.007668	0.001048
2.8965	0.125684	0.13561	0.19109	0.456733	0.023489	0.054789	0.015896	0.093462	0.002289	0.002388	0.211596	0.159489	0.002378	0.132879	0.007663	0.00133
2.897	0.126397	0.13727	0.192755	0.458617	0.02376	0.054403	0.016279	0.094657	0.002281	0.002361	0.212075	0.160487	0.00238	0.134045	0.007659	0.001624
2.8975	0.127129	0.138945	0.194401	0.460483	0.02404	0.054023	0.016673	0.095856	0.002274	0.002334	0.212569	0.161484	0.002385	0.13522	0.007657	0.00193
2.898	0.127878	0.140637	0.196027	0.46233	0.024329	0.053649	0.017079	0.097057	0.002268	0.002307	0.213076	0.162479	0.002393	0.136403	0.007657	0.002247
2.8985	0.128646	0.142344	0.197634	0.464159	0.024626	0.053281	0.017498	0.098261	0.002262	0.002278	0.213596	0.163474	0.002404	0.137595	0.007659	0.002576
2.899	0.129432	0.144068	0.199221	0.465968	0.024933	0.052921	0.017929	0.099468	0.002257	0.00225	0.21413	0.164466	0.002419	0.138797	0.007662	0.002917
2.8995	0.130237	0.145807	0.200786	0.467758	0.025248	0.052568	0.018372	0.100677	0.002253	0.002221	0.214676	0.165456	0.002437	0.140008	0.007667	0.003271
2.9	0.13106	0.147561	0.20233	0.469529	0.025573	0.052223	0.018828	0.101888	0.00225	0.002191	0.215235	0.166445	0.002458	0.141229	0.007674	0.003638
2.9005	0.131903	0.149331	0.203851	0.471279	0.025907	0.051886	0.019296	0.1031	0.002247	0.00216	0.215806	0.16743	0.002482	0.14246	0.007683	0.004017
2.901	0.132764	0.151115	0.205349	0.473009	0.02625	0.051558	0.019777	0.104314	0.002246	0.00213	0.216388	0.168413	0.00251	0.143701	0.007695	0.004409
2.9015	0.133645	0.152913	0.206824	0.474718	0.026603	0.05124	0.020272	0.105528	0.002245	0.002098	0.216981	0.169392	0.002541	0.144953	0.007709	0.004815
2.902	0.134544	0.154725	0.208273	0.476405	0.026965	0.050931	0.020779	0.106743	0.002245	0.002066	0.217585	0.170368	0.002577	0.146217	0.007725	0.005235
2.9025	0.135463	0.156552	0.209697	0.478069	0.027336	0.050633	0.0213	0.107958	0.002246	0.002033	0.218198	0.17134	0.002616	0.147492	0.007744	0.005668
2.903	0.136401	0.158391	0.211096	0.479711	0.027718	0.050345	0.021834	0.109172	0.002249	0.002	0.21882	0.172308	0.002659	0.148778	0.007765	0.006116
2.9035	0.137358	0.160244	0.212467	0.48133	0.028109	0.050068	0.022382	0.110386	0.002252	0.001967	0.219451	0.173271	0.002706	0.150077	0.007789	0.006578
2.904	0.138335	0.162109	0.213811	0.482924	0.02851	0.049804	0.022943	0.1116	0.002256	0.001932	0.22009	0.174228	0.002758	0.151389	0.007817	0.007054
2.9045	0.139331	0.163987	0.215127	0.484495	0.028921	0.049551	0.023518	0.112811	0.002261	0.001897	0.220735	0.17518	0.002813	0.152713	0.007847	0.007545
2.905	0.140347	0.165876	0.216414	0.48604	0.029342	0.049311	0.024106	0.114021	0.002267	0.001862	0.221387	0.176125	0.002873	0.154051	0.00788	0.008052
2.9055	0.141383	0.167776	0.217671	0.487559	0.029773	0.049084	0.024709	0.115229	0.002275	0.001825	0.222045	0.177064	0.002938	0.155402	0.007916	0.008574
2.906	0.142439	0.169687	0.218899	0.489052	0.030215	0.048871	0.025326	0.116434	0.002283	0.001789	0.222707	0.177994	0.003007	0.156766	0.007956	0.009111
2.9065	0.143514	0.171607	0.220097	0.490518	0.030666	0.048672	0.025956	0.117636	0.002293	0.001751	0.223374	0.178916	0.00308	0.158145	0.008	0.009664
2.907	0.14461	0.173537	0.221263	0.491956	0.031128	0.048487	0.026601	0.118835	0.002304	0.001714	0.224045	0.179828	0.003159	0.159537	0.008047	0.010234
2.9075	0.145725	0.175475	0.222398	0.493364	0.0316	0.048318	0.02726	0.120031	0.002316	0.001675	0.22472	0.18073	0.003242	0.160943	0.008099	0.01082
2.908	0.146861	0.177422	0.223502	0.494743	0.032083	0.048164	0.027934	0.121222	0.002329	0.001636	0.225397	0.181621	0.003331	0.162364	0.008155	0.011422
2.9085	0.148016	0.179375	0.224573	0.496092	0.032576	0.048026	0.028622	0.122408	0.002344	0.001596	0.226078	0.182501	0.003424	0.163799	0.008215	0.012041
2.909	0.149192	0.181334	0.225611	0.49741	0.033079	0.047905	0.029324	0.123589	0.00236	0.001556	0.226761	0.183367	0.003523	0.165247	0.008279	0.012677
2.9095	0.150388	0.183298	0.226617	0.498698	0.033593	0.047801	0.030041	0.124765	0.002377	0.001516	0.227446	0.18422	0.003627	0.16671	0.008349	0.013331
2.91	0.151604	0.185267	0.227588	0.499954	0.034118	0.047714	0.030772	0.125934	0.002396	0.001475	0.228134	0.185059	0.003736	0.168188	0.008423	0.014002
2.9105	0.152841	0.18724	0.228526	0.501178	0.034653	0.047646	0.031518	0.127098	0.002416	0.001433	0.228824	0.185882	0.003852	0.169679	0.008503	0.01469
2.911	0.154097	0.189215	0.22943	0.502371	0.035199	0.047596	0.032279	0.128254	0.002437	0.001391	0.229515	0.186688	0.003972	0.171185	0.008588	0.015397
2.9115	0.155373	0.191192	0.230299	0.503533	0.035755	0.047566	0.033054	0.129403	0.00246	0.001349	0.230208	0.187477	0.004099	0.172705	0.008678	0.016122
2.912	0.15667	0.193171	0.231134	0.504662	0.036322	0.047555	0.033844	0.130545	0.002484	0.001307	0.230902	0.188248	0.004231	0.17424	0.008775	0.016865
2.9125	0.157986	0.195149	0.231935	0.50576	0.036899	0.047564	0.034649	0.131679	0.00251	0.001264	0.231598	0.189	0.00437	0.17579	0.008877	0.017627
2.913	0.159322	0.197127	0.232701	0.506826	0.037487	0.047594	0.035468	0.132806	0.002538	0.00122	0.232295	0.189731	0.004515	0.177354	0.008986	0.018407
2.9135	0.160677	0.199104	0.233433	0.507862	0.038085	0.047646	0.036302	0.133924	0.002567	0.001177	0.232993	0.190442	0.004666	0.178934	0.009101	0.019207
2.914	0.162052	0.201078	0.234132	0.508866	0.038694	0.047719	0.037151	0.135035	0.002597	0.001133	0.233693	0.191133	0.004823	0.180529	0.009223	0.020025
2.9145	0.163446	0.203048	0.234796	0.50984	0.039313	0.047814	0.038014	0.136137	0.00263	0.001089	0.234393	0.191801	0.004987	0.182139	0.009351	0.020863
2.915	0.164859	0.205014	0.235428	0.510784	0.039942	0.047932	0.038892	0.137231	0.002664	0.001045	0.235095	0.192448	0.005158	0.183764	0.009487	0.021721
2.9155	0.166291	0.206974	0.236027	0.511697	0.040582	0.048074	0.039784	0.138317	0.002699	0.001001	0.235799	0.193073	0.005335	0.185405	0.009631	0.022598
2.916	0.167742	0.208928	0.236594	0.512582	0.041231	0.048239	0.040691	0.139394	0.002737	0.000956	0.236503	0.193675	0.00552	0.187061	0.009782	0.023495
2.9165	0.169211	0.210873	0.23713	0.513437	0.041891	0.048428	0.041611	0.140464	0.002776	0.000912	0.237209	0.194254	0.005711	0.188733	0.009942	0.024413
2.917	0.170699	0.21281	0.237636	0.514263	0.04256	0.048642	0.042547	0.141525	0.002817	0.000868	0.237917	0.194811	0.00591	0.19042	0.01011	0.02535
2.9175	0.172205	0.214737	0.238113	0.51506	0.043239	0.048881	0.043496	0.142578	0.00286	0.000823	0.238626	0.195344	0.006117	0.192122	0.010287	0.026309
2.918	0.17373	0.216652	0.238561	0.51583	0.043928	0.049146	0.044459	0.143625	0.002905	0.000779	0.239337	0.195855	0.006331	0.193839	0.010473	0.027287
2.9185	0.175274	0.218555	0.238982	0.51657	0.044627	0.049437	0.045437	0.144664	0.002952	0.000735	0.240049	0.196344	0.006552	0.195572	0.010668	0.028287
2.919	0.176836	0.220446	0.239376	0.517283	0.045335	0.049754	0.046428	0.145696	0.003	0.000691	0.240763	0.19681	0.006782	0.19732	0.010873	0.029308
2.9195	0.178416	0.222322	0.239744	0.517967	0.046052	0.050099	0.047433	0.146722	0.003051	0.000648	0.24148	0.197254	0.007019	0.199084	0.011089	0.030349
2.92	0.180014	0.224183	0.240088	0.518623	0.046779	0.050471	0.048451	0.147742	0.003104	0.000605	0.242198	0.197676	0.007265	0.200863	0.011315	0.031412
2.9205	0.181631	0.226029	0.240406	0.519251	0.047515	0.050871	0.049483	0.148756	0.003159	0.000562	0.242917	0.198077	0.007518	0.202657	0.011552	0.032497
2.921	0.183265	0.227857	0.240701	0.51985	0.04826	0.0513	0.050529	0.149765	0.003216	0.00052	0.243639	0.198457	0.007781	0.204467	0.0118	0.033604
2.9215	0.184917	0.229668	0.240972	0.520421	0.049014	0.051757	0.051587	0.150768	0.003275	0.000478	0.244363	0.198816	0.008052	0.206293	0.012061	0.034732
2.922	0.186586	0.23146	0.241221	0.520964	0.049777	0.052244	0.052658	0.151767	0.003337	0.000437	0.245089	0.199156	0.008331	0.208135	0.012333	0.035882
2.9225	0.188273	0.233232	0.241447	0.521479	0.050549	0.052761	0.053742	0.152762	0.003401	0.000397	0.245817	0.199475	0.00862	0.209993	0.012618	0.037055
2.923	0.189977	0.234983	0.241653	0.521965	0.051329	0.053309	0.054839	0.153753	0.003467	0.000357	0.246547	0.199775	0.008918	0.211868	0.012916	0.038249
2.9235	0.191698	0.236711	0.241837	0.522422	0.052119	0.053886	0.055948	0.154741	0.003536	0.000319	0.247279	0.200056	0.009224	0.213758	0.013228	0.039467
2.924	0.193435	0.238416	0.242001	0.522851	0.052916	0.054495	0.057069	0.155726	0.003607	0.000281	0.248014	0.200318	0.009541	0.215665	0.013553	0.040706
2.9245	0.195188	0.240097	0.242146	0.523251	0.053723	0.055136	0.058202	0.156708	0.003681	0.000244	0.248752	0.200561	0.009866	0.217588	0.013893	0.041969
2.925	0.196956	0.241752	0.242271	0.523621	0.054537	0.055808	0.059347	0.157689	0.003757	0.000208	0.249492	0.200788	0.010202	0.219528	0.014247	0.043254
2.9255	0.19874	0.24338	0.242378	0.523961	0.05536	0.056513	0.060503	0.158668	0.003836	0.000173	0.250234	0.200996	0.010547	0.221483	0.014616	0.044563
2.926	0.200539	0.244981	0.242467	0.524272	0.056191	0.05725	0.061671	0.159646	0.003917	0.000139	0.25098	0.201188	0.010902	0.223454	0.015001	0.045894
2.9265	0.202352	0.246552	0.242539	0.524553	0.05703	0.05802	0.062849	0.160623	0.004002	0.000107	0.251728	0.201365	0.011267	0.225441	0.015402	0.047248
2.927	0.204178	0.248093	0.242592	0.524803	0.057878	0.058823	0.064038	0.1616	0.004089	7.5e-05	0.252478	0.201525	0.011643	0.227443	0.01582	0.048626
2.9275	0.206018	0.249603	0.242629	0.525022	0.058733	0.05966	0.065238	0.162576	0.004179	4.5e-05	0.253231	0.201671	0.012029	0.229461	0.016254	0.050026
2.928	0.207869	0.25108	0.242649	0.525212	0.059598	0.060531	0.066447	0.163552	0.004272	1.7e-05	0.253987	0.201803	0.012425	0.231493	0.016705	0.051451
2.9285	0.209732	0.252524	0.242652	0.525372	0.06047	0.061437	0.067666	0.164529	0.004368	0	0.254745	0.20192	0.012833	0.23354	0.017174	0.052898
2.929	0.211606	0.253934	0.242639	0.525502	0.061351	0.062377	0.068894	0.165506	0.004467	0	0.255505	0.202025	0.013251	0.235601	0.017661	0.05437
2.9295	0.21349	0.255308	0.242609	0.525602	0.062241	0.063352	0.070131	0.166483	0.004569	0	0.256266	0.202116	0.013681	0.237676	0.018166	0.055865
2.93	0.215382	0.256646	0.242562	0.525672	0.06314	0.064362	0.071377	0.167462	0.004674	0	0.257028	0.202196	0.014122	0.239764	0.01869	0.057384
2.9305	0.217283	0.257946	0.242499	0.525714	0.064047	0.065408	0.07263	0.168441	0.004783	0	0.257792	0.202264	0.014574	0.241864	0.019234	0.058927
2.931	0.219192	0.259207	0.242419	0.525727	0.064964	0.066489	0.073891	0.169421	0.004895	0	0.258556	0.20232	0.015038	0.243976	0.019797	0.060493
2.9315	0.221107	0.260429	0.242322	0.52571	0.06589	0.067607	0.07516	0.170402	0.005011	0	0.259319	0.202366	0.015514	0.2461	0.02038	0.062084
2.932	0.223028	0.261609	0.242208	0.525665	0.066825	0.068761	0.076435	0.171384	0.00513	0	0.260082	0.202402	0.016003	0.248235	0.020983	0.063699
2.9325	0.224954	0.262748	0.242078	0.525591	0.06777	0.069951	0.077716	0.172367	0.005253	0	0.260844	0.202427	0.016503	0.250381	0.021607	0.065339
2.933	0.226884	0.263844	0.24193	0.525488	0.068724	0.071179	0.079003	0.173351	0.00538	0	0.261604	0.202444	0.017016	0.252537	0.022252	0.067002
2.9335	0.228818	0.264897	0.241766	0.525357	0.069687	0.072444	0.080295	0.174336	0.00551	0	0.262362	0.202451	0.017542	0.254702	0.022919	0.06869
2.934	0.230755	0.265905	0.241583	0.525196	0.07066	0.073746	0.081592	0.175322	0.005644	0	0.263117	0.20245	0.01808	0.256877	0.023608	0.070403
2.9345	0.232695	0.266869	0.241383	0.525006	0.071643	0.075086	0.082893	0.176308	0.005783	0	0.263871	0.202441	0.018632	0.25906	0.024319	0.07214
2.935	0.234637	0.267788	0.241166	0.524788	0.072636	0.076464	0.084198	0.177296	0.005925	0	0.264622	0.202423	0.019196	0.261251	0.025053	0.073901
2.9355	0.23658	0.26866	0.240931	0.52454	0.073638	0.07788	0.085506	0.178284	0.006071	0	0.26537	0.202398	0.019774	0.263449	0.025811	0.075688
2.936	0.238523	0.269486	0.240678	0.524263	0.074651	0.079334	0.086817	0.179272	0.006222	0	0.266115	0.202365	0.020365	0.265655	0.026592	0.077499
2.9365	0.240467	0.270266	0.240407	0.523957	0.075674	0.080827	0.08813	0.180261	0.006377	0	0.266858	0.202325	0.02097	0.267866	0.027398	0.079335
2.937	0.24241	0.270997	0.240119	0.523621	0.076708	0.082358	0.089444	0.181251	0.006536	0	0.267597	0.202278	0.021589	0.270084	0.028228	0.081197
2.9375	0.244352	0.271681	0.239814	0.523256	0.077752	0.083928	0.09076	0.182241	0.0067	0	0.268332	0.202225	0.022221	0.272306	0.029083	0.083083
2.938	0.246291	0.272317	0.23949	0.522862	0.078808	0.085538	0.092076	0.183232	0.006868	0	0.269064	0.202164	0.022868	0.274532	0.029965	0.084995
2.9385	0.248228	0.272903	0.239149	0.522438	0.079875	0.087186	0.093392	0.184222	0.00704	0	0.269791	0.202098	0.023529	0.276762	0.030872	0.086932
2.939	0.25016	0.27344	0.23879	0.521985	0.080953	0.088873	0.094708	0.185213	0.007218	0	0.270513	0.202025	0.024205	0.278994	0.031805	0.088894
2.9395	0.252088	0.273927	0.238414	0.521502	0.082043	0.0906	0.096022	0.186204	0.0074	0	0.27123	0.201947	0.024895	0.281228	0.032765	0.090883
2.94	0.254009	0.274363	0.23802	0.520989	0.083145	0.092365	0.097334	0.187195	0.007586	3e-06	0.271942	0.201863	0.0256	0.283462	0.033753	0.092897
2.9405	0.255924	0.274749	0.237609	0.520446	0.08426	0.09417	0.098643	0.188185	0.007778	4e-05	0.272647	0.201773	0.02632	0.285696	0.034768	0.094936
2.941	0.257831	0.275083	0.237182	0.519873	0.085387	0.096014	0.099949	0.189175	0.007974	8.2e-05	0.273346	0.201677	0.027055	0.287927	0.035811	0.097002
2.9415	0.25973	0.275366	0.236738	0.519267	0.086526	0.097897	0.101251	0.190164	0.008176	0.000128	0.274038	0.201577	0.027805	0.290155	0.036883	0.099093
2.942	0.261619	0.275597	0.236278	0.51863	0.087679	0.099819	0.102548	0.191152	0.008382	0.000179	0.274722	0.201471	0.028571	0.292379	0.037984	0.10121
2.9425	0.263498	0.275777	0.235802	0.517959	0.088845	0.10178	0.10384	0.192139	0.008593	0.000233	0.275398	0.20136	0.029353	0.294597	0.039113	0.103353
2.943	0.265367	0.275906	0.235311	0.517256	0.090024	0.103781	0.105125	0.193123	0.00881	0.000293	0.276066	0.201244	0.03015	0.296808	0.040272	0.105521
2.9435	0.267223	0.275984	0.234806	0.516518	0.091216	0.105821	0.106404	0.194106	0.009032	0.000357	0.276724	0.201123	0.030963	0.29901	0.041461	0.107716
2.944	0.269068	0.27601	0.234286	0.515746	0.092423	0.1079	0.107675	0.195087	0.009259	0.000426	0.277374	0.200998	0.031793	0.301201	0.04268	0.109937
2.9445	0.270899	0.275986	0.233754	0.51494	0.093642	0.110019	0.108937	0.196066	0.009491	0.0005	0.278013	0.200868	0.032639	0.30338	0.04393	0.112183
2.945	0.272716	0.27591	0.233209	0.514099	0.094876	0.112178	0.110191	0.197041	0.009729	0.000579	0.278642	0.200733	0.033501	0.305545	0.04521	0.114456
2.9455	0.274518	0.275784	0.232653	0.513224	0.096124	0.114377	0.111436	0.198014	0.009972	0.000663	0.279261	0.200595	0.03438	0.307695	0.046522	0.116755
2.946	0.276305	0.275607	0.232087	0.512313	0.097385	0.116615	0.11267	0.198983	0.010221	0.000753	0.279869	0.200452	0.035275	0.309828	0.047865	0.11908
2.9465	0.278076	0.275379	0.231512	0.511367	0.098661	0.118894	0.113894	0.199948	0.010475	0.000848	0.280467	0.200304	0.036188	0.311942	0.04924	0.12143
2.947	0.27983	0.275101	0.230928	0.510386	0.099951	0.121213	0.115107	0.20091	0.010735	0.00095	0.281054	0.200152	0.037117	0.314036	0.050647	0.123807
2.9475	0.281566	0.274773	0.230336	0.50937	0.101254	0.123572	0.116308	0.201868	0.011001	0.001057	0.281629	0.199996	0.038064	0.316108	0.052086	0.12621
2.948	0.283284	0.274396	0.229737	0.508318	0.102573	0.125972	0.117496	0.202822	0.011272	0.00117	0.282192	0.199836	0.039027	0.318157	0.053557	0.128639
2.9485	0.284982	0.273969	0.229132	0.50723	0.103905	0.128412	0.118672	0.203772	0.011549	0.00129	0.282742	0.199672	0.040008	0.320183	0.055062	0.131095
2.949	0.28666	0.273493	0.228522	0.506107	0.105252	0.130894	0.119834	0.204719	0.011832	0.001416	0.28328	0.199504	0.041007	0.322184	0.056599	0.133576
2.9495	0.288316	0.272969	0.227906	0.504949	0.106613	0.133417	0.120982	0.205661	0.012121	0.001549	0.283803	0.199331	0.042023	0.32416	0.05817	0.136084
2.95	0.289951	0.272398	0.227287	0.503757	0.107989	0.135982	0.122114	0.206601	0.012416	0.001688	0.284313	0.199155	0.043056	0.326109	0.059774	0.138618
2.9505	0.291563	0.271778	0.226665	0.502531	0.109379	0.138588	0.123232	0.207537	0.012717	0.001835	0.284807	0.198975	0.044107	0.32803	0.061412	0.141177
2.951	0.293152	0.271111	0.22604	0.501273	0.110783	0.141235	0.124333	0.20847	0.013024	0.001989	0.285286	0.198792	0.045175	0.329922	0.063084	0.143763
2.9515	0.294718	0.270397	0.225414	0.499981	0.112202	0.143925	0.125417	0.2094	0.013337	0.002151	0.285748	0.198606	0.046261	0.331784	0.06479	0.146375
2.952	0.29626	0.269637	0.224786	0.498658	0.113636	0.146656	0.126483	0.210328	0.013657	0.00232	0.286192	0.198417	0.047365	0.333615	0.066531	0.149013
2.9525	0.297777	0.268829	0.224159	0.497303	0.115084	0.149428	0.127532	0.211253	0.013982	0.002497	0.286617	0.198227	0.048486	0.335415	0.068306	0.151676
2.953	0.29927	0.267976	0.223532	0.495918	0.116548	0.152243	0.128561	0.212175	0.014314	0.002682	0.287023	0.198035	0.049625	0.337181	0.070116	0.154365
2.9535	0.300737	0.267077	0.222906	0.494503	0.118027	0.155099	0.129571	0.213095	0.014653	0.002876	0.287408	0.197842	0.050782	0.338913	0.071961	0.15708
2.954	0.302178	0.266132	0.222282	0.493057	0.119522	0.157996	0.130562	0.214012	0.014997	0.003078	0.287771	0.197649	0.051956	0.340612	0.073842	0.15982
2.9545	0.303593	0.265142	0.221661	0.491582	0.121032	0.160935	0.131533	0.214928	0.015349	0.003288	0.28811	0.197455	0.053147	0.342275	0.075758	0.162585
2.955	0.304981	0.264107	0.221043	0.490078	0.122558	0.163914	0.132483	0.215841	0.015707	0.003508	0.288425	0.197262	0.054356	0.343902	0.07771	0.165375
2.9555	0.306341	0.263028	0.220428	0.488545	0.124101	0.166935	0.133414	0.216754	0.016071	0.003736	0.288714	0.19707	0.055583	0.345494	0.079698	0.16819
2.956	0.307673	0.261906	0.219818	0.486984	0.12566	0.169996	0.134323	0.217666	0.016443	0.003974	0.288977	0.196878	0.056826	0.347048	0.081722	0.171031
2.9565	0.308975	0.260741	0.219212	0.485397	0.127236	0.173098	0.135212	0.218578	0.016821	0.004221	0.289212	0.196689	0.058087	0.348565	0.083782	0.173896
2.957	0.310248	0.259534	0.218612	0.483783	0.128829	0.17624	0.136079	0.219491	0.017206	0.004478	0.289418	0.196502	0.059365	0.350044	0.085878	0.176787
2.9575	0.311489	0.258286	0.218017	0.482144	0.130439	0.179422	0.136926	0.220405	0.017598	0.004745	0.289593	0.196318	0.06066	0.351484	0.088011	0.179702
2.958	0.312699	0.256998	0.217429	0.480482	0.132066	0.182644	0.13775	0.221321	0.017997	0.005022	0.289738	0.196137	0.061971	0.352886	0.090181	0.182642
2.9585	0.313876	0.255671	0.216848	0.478796	0.133711	0.185905	0.138553	0.222238	0.018403	0.005309	0.28985	0.195961	0.063299	0.354248	0.092387	0.185606
2.959	0.315021	0.254304	0.216274	0.477089	0.135373	0.189207	0.139334	0.223159	0.018816	0.005607	0.289928	0.195789	0.064643	0.35557	0.09463	0.188595
2.9595	0.316131	0.2529	0.215709	0.47536	0.137053	0.192548	0.140093	0.224082	0.019236	0.005915	0.289972	0.195622	0.066004	0.356851	0.09691	0.191607
2.96	0.317208	0.251458	0.215152	0.47361	0.13875	0.195928	0.140829	0.225009	0.019664	0.006234	0.289979	0.195461	0.06738	0.358092	0.099227	0.194644
2.9605	0.318251	0.249979	0.214604	0.471842	0.140466	0.199348	0.141543	0.22594	0.020099	0.006565	0.289949	0.195306	0.068772	0.359291	0.10158	0.197705
2.961	0.319258	0.248463	0.214066	0.470055	0.1422	0.202806	0.142234	0.226876	0.020542	0.006906	0.289881	0.195157	0.07018	0.360448	0.10397	0.200789
2.9615	0.32023	0.246913	0.213537	0.468251	0.143953	0.206303	0.142904	0.227816	0.020993	0.00726	0.289774	0.195015	0.071603	0.361562	0.106397	0.203897
2.962	0.321167	0.245328	0.213019	0.46643	0.145725	0.209838	0.143551	0.22876	0.021451	0.007625	0.289627	0.19488	0.073041	0.362634	0.10886	0.20703
2.9625	0.322069	0.24371	0.212511	0.464593	0.147516	0.21341	0.144176	0.22971	0.021917	0.008002	0.289441	0.194753	0.074494	0.363663	0.11136	0.210186
2.963	0.322935	0.24206	0.212015	0.462739	0.149326	0.21702	0.144779	0.230666	0.022391	0.008391	0.289213	0.194632	0.075962	0.36465	0.113897	0.213366
2.9635	0.323764	0.240378	0.21153	0.46087	0.151156	0.220667	0.14536	0.231626	0.022873	0.008793	0.288946	0.194519	0.077444	0.365593	0.116469	0.21657
2.964	0.324557	0.238667	0.211058	0.458986	0.153007	0.22435	0.14592	0.232593	0.023364	0.009208	0.288637	0.194414	0.078939	0.366493	0.119078	0.219798
2.9645	0.325312	0.236928	0.210598	0.457087	0.154877	0.228069	0.146459	0.233566	0.023862	0.009636	0.288287	0.194317	0.080449	0.367349	0.121722	0.223051
2.965	0.32603	0.235161	0.210152	0.455172	0.156768	0.231823	0.146978	0.234545	0.024369	0.010077	0.287897	0.194227	0.081972	0.368161	0.124402	0.226328
2.9655	0.326709	0.233368	0.209719	0.453242	0.15868	0.235613	0.147475	0.23553	0.024884	0.010532	0.287464	0.194146	0.083508	0.368929	0.127117	0.229629
2.966	0.327349	0.23155	0.2093	0.451297	0.160613	0.239437	0.147953	0.236522	0.025408	0.011	0.286991	0.194074	0.085057	0.369652	0.129867	0.232954
2.9665	0.327949	0.229708	0.208897	0.449338	0.162566	0.243295	0.14841	0.23752	0.02594	0.011482	0.286475	0.19401	0.086619	0.370329	0.132652	0.236303
2.967	0.328508	0.227844	0.208508	0.447364	0.164541	0.247187	0.148847	0.238525	0.026481	0.011978	0.285917	0.193955	0.088192	0.370961	0.135472	0.239676
2.9675	0.329025	0.225958	0.208136	0.445375	0.166538	0.251112	0.149265	0.239536	0.027031	0.012489	0.285316	0.19391	0.089777	0.371547	0.138326	0.243073
2.968	0.3295	0.224052	0.207779	0.443373	0.168556	0.255069	0.149663	0.240554	0.027589	0.013014	0.284673	0.193874	0.091373	0.372085	0.141214	0.246493
2.9685	0.329931	0.222127	0.207438	0.441356	0.170597	0.259058	0.150042	0.241578	0.028157	0.013555	0.283987	0.193848	0.092981	0.372577	0.144136	0.249938
2.969	0.330319	0.220184	0.207115	0.439327	0.17266	0.263078	0.150402	0.242608	0.028733	0.01411	0.283258	0.193832	0.094598	0.373019	0.147092	0.253405
2.9695	0.330662	0.218225	0.206808	0.437284	0.174745	0.267128	0.150743	0.243645	0.029318	0.014681	0.282486	0.193827	0.096226	0.373413	0.150081	0.256896
2.97	0.33096	0.21625	0.206519	0.43523	0.176853	0.271208	0.151067	0.244686	0.029913	0.015267	0.281672	0.193833	0.097863	0.373756	0.153102	0.26041
2.9705	0.331213	0.214261	0.206247	0.433165	0.178985	0.275316	0.151374	0.245733	0.030517	0.01587	0.280815	0.193851	0.09951	0.374049	0.156157	0.263948
2.971	0.331422	0.21226	0.205994	0.43109	0.181139	0.279454	0.151664	0.246785	0.03113	0.016488	0.279915	0.193881	0.101166	0.374289	0.159243	0.267508
2.9715	0.331586	0.210248	0.205759	0.429006	0.183317	0.283619	0.151939	0.247841	0.031754	0.017123	0.278972	0.193924	0.102832	0.374476	0.16236	0.271092
2.972	0.331706	0.208225	0.205542	0.426915	0.185518	0.287811	0.152198	0.248901	0.032386	0.017775	0.277987	0.193981	0.104506	0.374609	0.165509	0.274699
2.9725	0.331782	0.206193	0.205344	0.424817	0.187743	0.29203	0.152443	0.249965	0.033029	0.018444	0.276959	0.194052	0.106188	0.374688	0.168689	0.278329
2.973	0.331815	0.204154	0.205164	0.422713	0.189991	0.296275	0.152674	0.251032	0.033681	0.01913	0.275889	0.194138	0.10788	0.37471	0.171899	0.281981
2.9735	0.331805	0.202107	0.205004	0.420604	0.192264	0.300545	0.152892	0.252102	0.034343	0.019835	0.274777	0.194239	0.10958	0.374675	0.17514	0.285656
2.974	0.331753	0.200054	0.204862	0.418491	0.19456	0.30484	0.153098	0.253176	0.035016	0.020557	0.273622	0.194356	0.111288	0.374582	0.178409	0.289353
2.9745	0.331658	0.197997	0.204739	0.416376	0.196881	0.309159	0.153291	0.254251	0.035698	0.021298	0.272426	0.194489	0.113004	0.374429	0.181707	0.293072
2.975	0.331522	0.195935	0.204634	0.414259	0.199227	0.313502	0.153474	0.255329	0.036391	0.022058	0.271189	0.194639	0.114728	0.374217	0.185034	0.296812
2.9755	0.331345	0.193871	0.204548	0.41214	0.201597	0.317869	0.153646	0.256409	0.037094	0.022837	0.26991	0.194805	0.11646	0.373943	0.188389	0.300572
2.976	0.331127	0.191804	0.20448	0.410021	0.203992	0.322258	0.153809	0.257489	0.037808	0.023636	0.26859	0.194989	0.1182	0.373608	0.191771	0.304352
2.9765	0.330869	0.189735	0.204431	0.407902	0.206413	0.32667	0.153962	0.25857	0.038532	0.024455	0.267229	0.19519	0.119947	0.37321	0.195179	0.308152
2.977	0.330572	0.187667	0.204399	0.405785	0.208859	0.331104	0.154107	0.259651	0.039267	0.025293	0.265828	0.195409	0.121702	0.372749	0.198614	0.31197
2.9775	0.330238	0.185598	0.204386	0.40367	0.211331	0.335559	0.154245	0.260731	0.040012	0.026153	0.264387	0.195646	0.123464	0.372225	0.202075	0.315806
2.978	0.329867	0.183531	0.204389	0.401557	0.213828	0.340034	0.154375	0.261811	0.040768	0.027034	0.262907	0.195901	0.125233	0.371636	0.205561	0.319659
2.9785	0.32946	0.181466	0.20441	0.399447	0.216351	0.34453	0.154499	0.262888	0.041536	0.027935	0.261388	0.196174	0.12701	0.370982	0.209071	0.323529
2.979	0.329019	0.179404	0.204448	0.39734	0.218899	0.349045	0.154618	0.263964	0.042314	0.028859	0.259831	0.196464	0.128794	0.370264	0.212605	0.327416
2.9795	0.328545	0.177345	0.204502	0.395239	0.221474	0.353579	0.154731	0.265038	0.043104	0.029805	0.258237	0.196773	0.130586	0.369482	0.216162	0.331319
2.98	0.328039	0.175291	0.204574	0.393141	0.224075	0.358132	0.154839	0.266109	0.043905	0.030773	0.256606	0.197101	0.132384	0.368636	0.219741	0.335238
2.9805	0.327502	0.173242	0.204661	0.391049	0.226702	0.362702	0.154944	0.267177	0.044717	0.031763	0.254941	0.197446	0.13419	0.367727	0.223342	0.339173
2.981	0.326935	0.171199	0.204764	0.388963	0.229355	0.367289	0.155045	0.268243	0.045541	0.032777	0.253242	0.19781	0.136003	0.366757	0.226963	0.343122
2.9815	0.326339	0.169162	0.204883	0.386882	0.232036	0.371891	0.155142	0.269305	0.046377	0.033814	0.25151	0.198191	0.137823	0.365725	0.230604	0.347086
2.982	0.325715	0.167132	0.205017	0.384808	0.234742	0.37651	0.155237	0.270364	0.047225	0.034874	0.249745	0.19859	0.139649	0.364634	0.234264	0.351065
2.9825	0.325064	0.16511	0.205166	0.382741	0.237476	0.381142	0.155329	0.271419	0.048086	0.035959	0.24795	0.199007	0.141483	0.363484	0.237942	0.355056
2.983	0.324388	0.163097	0.205329	0.380682	0.240238	0.385788	0.155419	0.272469	0.048958	0.037068	0.246124	0.199442	0.143323	0.362278	0.241638	0.359061
2.9835	0.323686	0.161093	0.205505	0.378632	0.243026	0.390446	0.155508	0.273514	0.049843	0.038202	0.244269	0.199894	0.145169	0.361017	0.245351	0.363079
2.984	0.32296	0.159099	0.205695	0.376591	0.245842	0.395116	0.155595	0.274555	0.05074	0.039361	0.242386	0.200362	0.147022	0.359702	0.249079	0.36711
2.9845	0.322211	0.157115	0.205897	0.374561	0.248685	0.399797	0.155681	0.275589	0.051651	0.040545	0.240475	0.200847	0.14888	0.358336	0.252823	0.371152
2.985	0.321439	0.155142	0.206112	0.372543	0.251556	0.404488	0.155766	0.276616	0.052574	0.041755	0.238537	0.201349	0.150744	0.35692	0.256582	0.375207
2.9855	0.320645	0.15318	0.206338	0.370537	0.254455	0.409188	0.155849	0.277636	0.05351	0.042991	0.236575	0.201866	0.152614	0.355458	0.260355	0.379275
2.986	0.319829	0.151231	0.206575	0.368544	0.25738	0.413899	0.155932	0.278649	0.05446	0.044253	0.234589	0.2024	0.154489	0.353949	0.264141	0.383354
2.9865	0.318992	0.149294	0.206823	0.366564	0.260334	0.418618	0.156015	0.279652	0.055423	0.045541	0.232579	0.202949	0.15637	0.352397	0.26794	0.387445
2.987	0.318134	0.14737	0.207081	0.3646	0.263314	0.423347	0.156097	0.280646	0.0564	0.046856	0.230549	0.203514	0.158255	0.350803	0.271751	0.391547
2.9875	0.317256	0.14546	0.207349	0.362651	0.266321	0.428084	0.156178	0.28163	0.05739	0.048199	0.228498	0.204095	0.160145	0.349169	0.275573	0.395661
2.988	0.316357	0.143565	0.207626	0.360718	0.269354	0.43283	0.156258	0.282603	0.058395	0.049568	0.226429	0.204691	0.162039	0.347497	0.279406	0.399786
2.9885	0.315439	0.141684	0.207912	0.358802	0.272415	0.437584	0.156338	0.283565	0.059415	0.050966	0.224342	0.205303	0.163938	0.345789	0.28325	0.403921
2.989	0.3145	0.139818	0.208206	0.356903	0.275501	0.442347	0.156416	0.284514	0.060449	0.05239	0.222239	0.205929	0.16584	0.344046	0.287103	0.408067
2.9895	0.313542	0.137968	0.208508	0.355023	0.278614	0.447116	0.156494	0.285451	0.061498	0.053843	0.220122	0.20657	0.167745	0.34227	0.290967	0.412223
2.99	0.312565	0.136134	0.208817	0.353161	0.281754	0.451892	0.15657	0.286376	0.062562	0.055325	0.217991	0.207226	0.169654	0.340464	0.29484	0.416389
2.9905	0.311568	0.134317	0.209134	0.351319	0.28492	0.456674	0.156645	0.287288	0.063642	0.056834	0.215848	0.207896	0.171565	0.338629	0.298723	0.420565
2.991	0.310553	0.132517	0.209457	0.349496	0.288113	0.46146	0.156718	0.288187	0.064737	0.058373	0.213693	0.208581	0.173479	0.336766	0.302615	0.424751
2.9915	0.309519	0.130734	0.209786	0.347693	0.291333	0.466251	0.156789	0.289073	0.065847	0.05994	0.211528	0.209279	0.175395	0.334879	0.306518	0.428947
2.992	0.308467	0.12897	0.210121	0.345911	0.294581	0.471044	0.156858	0.289947	0.066974	0.061536	0.209355	0.209992	0.177313	0.332967	0.31043	0.433153
2.9925	0.307397	0.127223	0.210462	0.344149	0.297856	0.475839	0.156925	0.290808	0.068117	0.063161	0.207173	0.210719	0.179232	0.331033	0.314353	0.437369
2.993	0.306308	0.125495	0.210807	0.342408	0.301159	0.480635	0.156988	0.291657	0.069276	0.064815	0.204983	0.21146	0.181153	0.329078	0.318287	0.441595
2.9935	0.305203	0.123786	0.211158	0.340689	0.30449	0.485432	0.157049	0.292494	0.070451	0.066499	0.202788	0.212214	0.183075	0.327104	0.322231	0.44583
2.994	0.304079	0.122096	0.211514	0.338992	0.307849	0.490228	0.157106	0.293319	0.071643	0.068213	0.200586	0.212983	0.184997	0.325112	0.326186	0.450074
2.9945	0.302939	0.120425	0.211874	0.337317	0.311236	0.495025	0.157159	0.294134	0.072852	0.069957	0.198381	0.213766	0.186919	0.323104	0.330153	0.454327
2.995	0.30178	0.118774	0.212239	0.335663	0.314651	0.49982	0.157208	0.29494	0.074077	0.071731	0.196171	0.214562	0.188842	0.321081	0.33413	0.458587
2.9955	0.300605	0.117143	0.212608	0.334033	0.318095	0.504613	0.157252	0.295737	0.075321	0.073535	0.193958	0.215373	0.190764	0.319045	0.338118	0.462854
2.996	0.299412	0.115532	0.212981	0.332426	0.321566	0.509405	0.157291	0.296526	0.076581	0.075369	0.191742	0.216197	0.192684	0.316996	0.342117	0.467128
2.9965	0.298202	0.113942	0.213357	0.330844	0.325066	0.514195	0.157325	0.297309	0.07786	0.077234	0.189525	0.217035	0.194604	0.314936	0.346127	0.471407
2.997	0.296975	0.112371	0.213738	0.329286	0.328593	0.518983	0.157354	0.298086	0.079156	0.07913	0.187307	0.217887	0.196521	0.312866	0.350149	0.47569
2.9975	0.295731	0.110822	0.214122	0.327755	0.332147	0.523767	0.157377	0.298858	0.08047	0.081056	0.185088	0.218752	0.198435	0.310787	0.354182	0.479978
2.998	0.294471	0.109293	0.214509	0.326251	0.33573	0.528548	0.157393	0.299627	0.081803	0.083014	0.18287	0.219631	0.200346	0.308701	0.358229	0.484269
2.9985	0.293196	0.107786	0.2149	0.324775	0.33934	0.533326	0.157403	0.300393	0.083154	0.085002	0.180651	0.220523	0.202253	0.306608	0.362288	0.488562
2.999	0.291906	0.106299	0.215293	0.323328	0.342978	0.538099	0.157405	0.301159	0.084524	0.087022	0.178434	0.221429	0.204155	0.304509	0.366361	0.492857
2.9995	0.290602	0.104834	0.215689	0.321912	0.346643	0.542868	0.1574	0.301926	0.085913	0.089074	0.176218	0.222349	0.206051	0.302406	0.370448	0.497154
3	0.289285	0.10339	0.216088	0.320526	0.350337	0.547631	0.157387	0.302695	0.08732	0.091157	0.174003	0.223282	0.207942	0.3003	0.37455	0.501451
3.0005	0.287956	0.101968	0.216488	0.319171	0.354058	0.552388	0.157365	0.303467	0.088746	0.093271	0.171791	0.22423	0.209826	0.298191	0.378668	0.505747
3.001	0.286614	0.100567	0.21689	0.317849	0.357807	0.557138	0.157335	0.304244	0.090191	0.095417	0.16958	0.22519	0.211702	0.296081	0.382803	0.510043
3.0015	0.285262	0.099188	0.217294	0.31656	0.361585	0.561881	0.157294	0.305026	0.091655	0.097595	0.167373	0.226165	0.21357	0.293969	0.386954	0.514337
3.002	0.2839	0.09783	0.2177	0.315305	0.36539	0.566615	0.157243	0.305815	0.093138	0.099805	0.165168	0.227153	0.215429	0.291858	0.391124	0.518628
3.0025	0.282528	0.096494	0.218107	0.314084	0.369223	0.57134	0.157181	0.306612	0.09464	0.102046	0.162967	0.228155	0.217279	0.289748	0.395311	0.522915
3.003	0.281147	0.09518	0.218516	0.312898	0.373083	0.576054	0.157108	0.307418	0.096161	0.104318	0.160769	0.229171	0.219119	0.287639	0.399517	0.527196
3.0035	0.279758	0.093888	0.218926	0.311747	0.37697	0.580757	0.157023	0.308234	0.097701	0.106622	0.158577	0.2302	0.220948	0.285533	0.403741	0.53147
3.004	0.278362	0.092618	0.219338	0.310632	0.380884	0.585446	0.156925	0.309062	0.09926	0.108958	0.156389	0.231242	0.222767	0.28343	0.407984	0.535736
3.0045	0.276958	0.091369	0.219752	0.309553	0.384824	0.590121	0.156815	0.3099	0.100838	0.111325	0.154206	0.232297	0.224573	0.281332	0.412246	0.539991
3.005	0.275547	0.090142	0.220167	0.308512	0.388791	0.59478	0.156691	0.310752	0.102436	0.113723	0.15203	0.233365	0.226366	0.279238	0.416526	0.544234
3.0055	0.27413	0.088938	0.220584	0.307507	0.392782	0.59942	0.156554	0.311617	0.104052	0.116152	0.149861	0.234445	0.228147	0.277151	0.420826	0.548462
3.006	0.272707	0.087755	0.221002	0.30654	0.396797	0.60404	0.156402	0.312496	0.105687	0.118612	0.147699	0.235538	0.229913	0.27507	0.425143	0.552675
3.0065	0.271279	0.086594	0.221423	0.305611	0.400837	0.608639	0.156236	0.31339	0.10734	0.121103	0.145545	0.236642	0.231663	0.272997	0.42948	0.55687
3.007	0.269847	0.085455	0.221845	0.30472	0.404899	0.613213	0.156055	0.3143	0.109012	0.123624	0.143399	0.237758	0.233398	0.270931	0.433834	0.561047
3.0075	0.268413	0.084338	0.222268	0.303867	0.408982	0.61776	0.155859	0.315227	0.110703	0.126176	0.141262	0.238884	0.235117	0.268874	0.438207	0.565202
3.008	0.266975	0.083243	0.222693	0.303052	0.413086	0.622279	0.155647	0.31617	0.112411	0.128758	0.139135	0.240021	0.236818	0.266826	0.442598	0.569336
3.0085	0.265537	0.082169	0.223119	0.302274	0.41721	0.626767	0.15542	0.317131	0.114138	0.131371	0.137019	0.241168	0.238501	0.264788	0.447006	0.573446
3.009	0.264098	0.081118	0.223546	0.301535	0.421352	0.631221	0.155177	0.31811	0.115882	0.134013	0.134914	0.242326	0.240165	0.26276	0.451433	0.577532
3.0095	0.262659	0.080087	0.223973	0.300834	0.425511	0.635639	0.15492	0.319107	0.117644	0.136684	0.13282	0.243494	0.24181	0.260743	0.455878	0.581593
3.01	0.261222	0.079079	0.224401	0.30017	0.429686	0.640018	0.154647	0.320123	0.119423	0.139384	0.13074	0.244671	0.243435	0.258736	0.460341	0.585626
3.0105	0.259787	0.078091	0.224828	0.299543	0.433875	0.644358	0.15436	0.321157	0.121219	0.142113	0.128673	0.245859	0.245038	0.256741	0.464821	0.589629
3.011	0.258356	0.077125	0.225256	0.298954	0.438076	0.648655	0.154059	0.32221	0.123032	0.144871	0.126621	0.247057	0.24662	0.254758	0.469319	0.593603
3.0115	0.256929	0.07618	0.225683	0.298402	0.442288	0.652908	0.153743	0.323282	0.12486	0.147657	0.124584	0.248264	0.248179	0.252787	0.473833	0.597544
3.012	0.255507	0.075256	0.22611	0.297886	0.44651	0.657117	0.153414	0.324374	0.126705	0.150469	0.122562	0.249482	0.249714	0.25083	0.478364	0.601451
3.0125	0.254091	0.074354	0.226535	0.297407	0.450738	0.661281	0.153072	0.325485	0.128565	0.153309	0.120557	0.250709	0.251225	0.248885	0.482909	0.605324
3.013	0.252682	0.073471	0.22696	0.296965	0.454973	0.665398	0.152716	0.326617	0.130441	0.156176	0.11857	0.251947	0.25271	0.246955	0.48747	0.609159
3.0135	0.25128	0.07261	0.227383	0.296558	0.459212	0.669469	0.152347	0.32777	0.132331	0.159068	0.1166	0.253195	0.254169	0.245039	0.492043	0.612957
3.014	0.249886	0.071769	0.227805	0.296186	0.463453	0.673493	0.151965	0.328945	0.134236	0.161985	0.114648	0.254453	0.255601	0.243138	0.496629	0.616715
3.0145	0.248501	0.070948	0.228224	0.29585	0.467696	0.677469	0.15157	0.330142	0.136154	0.164927	0.112715	0.255721	0.257005	0.241253	0.501225	0.620433
3.015	0.247126	0.070147	0.228641	0.295547	0.471939	0.681396	0.151163	0.331362	0.138087	0.167893	0.110801	0.257	0.25838	0.239384	0.505832	0.62411
3.0155	0.245761	0.069366	0.229056	0.295278	0.476181	0.685274	0.150744	0.332606	0.140032	0.170882	0.108907	0.25829	0.259726	0.237532	0.510447	0.627744
3.016	0.244407	0.068604	0.229469	0.295042	0.48042	0.689103	0.150312	0.333874	0.141989	0.173893	0.107034	0.259591	0.261043	0.235698	0.51507	0.631335
3.0165	0.243066	0.067863	0.229878	0.294837	0.484656	0.692882	0.14987	0.335166	0.143959	0.176926	0.10518	0.260903	0.262329	0.233882	0.519698	0.634881
3.017	0.241737	0.06714	0.230283	0.294663	0.488888	0.69661	0.149416	0.336483	0.14594	0.17998	0.103348	0.262225	0.263585	0.232084	0.524332	0.638382
3.0175	0.240421	0.066436	0.230685	0.294519	0.493113	0.700289	0.148952	0.337826	0.147931	0.183053	0.101538	0.263559	0.26481	0.230305	0.528969	0.641835
3.018	0.23912	0.065751	0.231083	0.294403	0.497331	0.70392	0.148478	0.339194	0.149932	0.186145	0.099749	0.264903	0.266004	0.228546	0.533608	0.64524
3.0185	0.237835	0.065084	0.231477	0.294315	0.50154	0.707504	0.147994	0.340588	0.151943	0.189256	0.097982	0.266259	0.267165	0.226806	0.538248	0.648596
3.019	0.236565	0.064435	0.231866	0.294254	0.505739	0.711041	0.147502	0.342008	0.153962	0.192383	0.096237	0.267624	0.268295	0.225087	0.542886	0.651902
3.0195	0.235311	0.063803	0.23225	0.294218	0.509926	0.714535	0.147002	0.343455	0.155988	0.195526	0.094514	0.269	0.269391	0.223388	0.547523	0.655158
3.02	0.234074	0.063189	0.23263	0.294205	0.514101	0.717987	0.146494	0.344928	0.158022	0.198684	0.092815	0.270385	0.270455	0.221709	0.552155	0.658364
3.0205	0.232855	0.062592	0.233005	0.294215	0.518263	0.721399	0.145979	0.346427	0.160062	0.201855	0.091138	0.27178	0.271485	0.220051	0.556781	0.661518
3.021	0.231653	0.062012	0.233375	0.294246	0.52241	0.724773	0.145458	0.347952	0.162108	0.205039	0.089484	0.273184	0.272482	0.218413	0.5614	0.664621
3.0215	0.23047	0.061448	0.23374	0.294297	0.526541	0.728111	0.144931	0.349503	0.164158	0.208235	0.087853	0.274596	0.273444	0.216796	0.56601	0.667673
3.022	0.229305	0.0609	0.234099	0.294366	0.530657	0.731416	0.144399	0.351081	0.166212	0.211441	0.086245	0.276016	0.274373	0.215199	0.570609	0.670672
3.0225	0.228159	0.060368	0.234452	0.294452	0.534756	0.734687	0.143862	0.352683	0.16827	0.214657	0.084661	0.277444	0.275267	0.213623	0.575195	0.673619
3.023	0.227033	0.059851	0.2348	0.294554	0.538837	0.737928	0.143321	0.354311	0.170331	0.21788	0.0831	0.278879	0.276127	0.212067	0.579766	0.676513
3.0235	0.225926	0.059349	0.235141	0.29467	0.5429	0.741139	0.142776	0.355964	0.172394	0.221111	0.081563	0.28032	0.276952	0.210531	0.58432	0.679354
3.024	0.22484	0.058862	0.235476	0.2948	0.546945	0.744322	0.142228	0.357641	0.174459	0.224349	0.080049	0.281766	0.277742	0.209016	0.588853	0.682139
3.0245	0.223773	0.058389	0.235803	0.294941	0.550969	0.747478	0.141677	0.359343	0.176524	0.227592	0.078558	0.283217	0.278497	0.207521	0.593364	0.684869
3.025	0.222727	0.057931	0.236124	0.295093	0.554972	0.75061	0.141123	0.361069	0.17859	0.23084	0.077091	0.284673	0.279217	0.206046	0.59785	0.687543
3.0255	0.221702	0.057485	0.236436	0.295255	0.558953	0.753718	0.140568	0.362818	0.180656	0.234092	0.075648	0.286132	0.279901	0.204592	0.602309	0.69016
3.026	0.220698	0.057054	0.23674	0.295427	0.562911	0.756805	0.14001	0.364591	0.18272	0.237347	0.074227	0.287596	0.28055	0.203159	0.606736	0.69272
3.0265	0.219716	0.056634	0.237036	0.295606	0.566845	0.759872	0.139452	0.366387	0.184782	0.240605	0.07283	0.289062	0.281164	0.201746	0.61113	0.695222
3.027	0.218755	0.056228	0.237324	0.295794	0.570752	0.76292	0.138893	0.368205	0.186841	0.243864	0.071456	0.290532	0.281743	0.200355	0.615487	0.697667
3.0275	0.217817	0.055833	0.237602	0.295989	0.574631	0.765951	0.138333	0.370045	0.188897	0.247124	0.070105	0.292004	0.282287	0.198984	0.619806	0.700054
3.028	0.216901	0.055451	0.237872	0.29619	0.57848	0.768967	0.137774	0.371905	0.190949	0.250383	0.068777	0.293479	0.282796	0.197634	0.624082	0.702383
3.0285	0.216008	0.05508	0.238132	0.296398	0.582299	0.771968	0.137216	0.373786	0.192996	0.253641	0.067472	0.294956	0.283271	0.196305	0.628314	0.704655
3.029	0.215139	0.05472	0.238384	0.296612	0.586084	0.774957	0.136658	0.375687	0.195037	0.256896	0.06619	0.296435	0.28371	0.194997	0.632499	0.70687
3.0295	0.214292	0.054371	0.238628	0.296831	0.589835	0.777934	0.136102	0.377606	0.197073	0.260148	0.064931	0.297916	0.284114	0.193709	0.636634	0.709027
3.03	0.213469	0.054033	0.238864	0.297056	0.593549	0.780901	0.135548	0.379543	0.199102	0.263395	0.063694	0.299399	0.284484	0.192442	0.640717	0.711128
3.0305	0.21267	0.053705	0.239093	0.297285	0.597226	0.783859	0.134996	0.381497	0.201124	0.266636	0.06248	0.300884	0.284819	0.191196	0.644743	0.713171
3.031	0.211894	0.053388	0.239317	0.297518	0.600863	0.78681	0.134446	0.383467	0.203139	0.26987	0.061288	0.30237	0.285119	0.189971	0.648712	0.715158
3.0315	0.211142	0.05308	0.239537	0.297756	0.604459	0.789754	0.133899	0.385451	0.205146	0.273096	0.060118	0.303859	0.285386	0.188765	0.65262	0.717087
3.032	0.210414	0.052783	0.239754	0.297997	0.608012	0.792692	0.133354	0.387448	0.207145	0.276313	0.05897	0.305349	0.285619	0.187579	0.656463	0.718958
3.0325	0.209709	0.052495	0.239968	0.298241	0.611521	0.795626	0.132813	0.389457	0.209135	0.279519	0.057844	0.30684	0.28582	0.186413	0.660239	0.720771
3.033	0.209028	0.052217	0.240182	0.298489	0.614985	0.798555	0.132275	0.391478	0.211116	0.282715	0.05674	0.308334	0.285988	0.185267	0.663945	0.722524
3.0335	0.20837	0.051948	0.240395	0.29874	0.618403	0.801481	0.13174	0.393509	0.213088	0.285899	0.055656	0.309829	0.286126	0.184139	0.667578	0.724217
3.034	0.207736	0.051688	0.240609	0.298994	0.621774	0.804404	0.131209	0.39555	0.21505	0.289071	0.054595	0.311325	0.286235	0.183031	0.671134	0.725848
3.0345	0.207126	0.051437	0.240826	0.299251	0.625095	0.807324	0.130682	0.3976	0.217001	0.292231	0.053554	0.312823	0.286315	0.181942	0.674609	0.727418
3.035	0.206539	0.051194	0.241045	0.299511	0.628367	0.810241	0.130158	0.39966	0.218942	0.295377	0.052534	0.314322	0.286368	0.180873	0.678001	0.728923
3.0355	0.205975	0.05096	0.241269	0.299775	0.631586	0.813156	0.129639	0.40173	0.220871	0.298511	0.051534	0.315822	0.286395	0.179822	0.681306	0.730364
3.036	0.205435	0.050734	0.2415	0.300042	0.634752	0.816068	0.129123	0.403808	0.222788	0.301631	0.050555	0.317323	0.286397	0.17879	0.684522	0.731739
3.0365	0.204919	0.050516	0.241737	0.300314	0.637863	0.818977	0.12861	0.405895	0.224694	0.304737	0.049596	0.318824	0.286375	0.177778	0.687646	0.733048
3.037	0.204427	0.050306	0.241983	0.300591	0.640918	0.821883	0.128102	0.407992	0.226587	0.307829	0.048657	0.320326	0.28633	0.176784	0.690675	0.734289
3.0375	0.203958	0.050103	0.24224	0.300873	0.643914	0.824785	0.127597	0.410097	0.228466	0.310906	0.047738	0.321827	0.286264	0.175809	0.69361	0.735464
3.038	0.203512	0.049909	0.242509	0.301162	0.64685	0.827684	0.127096	0.412211	0.230333	0.313966	0.046839	0.323328	0.286177	0.174854	0.696449	0.736571
3.0385	0.203091	0.049722	0.242791	0.301457	0.649726	0.830581	0.126599	0.414334	0.232185	0.317011	0.045959	0.324828	0.28607	0.173917	0.699192	0.737613
3.039	0.202692	0.049543	0.243089	0.301761	0.652539	0.833475	0.126105	0.416467	0.234022	0.320038	0.045098	0.326326	0.285944	0.173	0.701839	0.738588
3.0395	0.202318	0.049371	0.243404	0.302074	0.65529	0.836366	0.125614	0.41861	0.235845	0.323046	0.044257	0.327823	0.2858	0.172103	0.70439	0.739497
3.04	0.201966	0.049207	0.243738	0.302397	0.657977	0.839256	0.125127	0.420764	0.237652	0.326036	0.043434	0.329318	0.285641	0.171225	0.706845	0.740342
3.0405	0.201637	0.049051	0.244092	0.302732	0.6606	0.842144	0.124643	0.42293	0.239442	0.329005	0.042631	0.330811	0.285466	0.170368	0.709205	0.741123
3.041	0.201331	0.048902	0.244468	0.303079	0.663159	0.845031	0.124163	0.425108	0.241216	0.331953	0.041846	0.332301	0.285277	0.169531	0.71147	0.741839
3.0415	0.201047	0.048761	0.244867	0.303442	0.665654	0.847916	0.123686	0.427301	0.242973	0.334878	0.04108	0.333788	0.285075	0.168715	0.713641	0.742492
3.042	0.200785	0.048627	0.24529	0.30382	0.668084	0.8508	0.123212	0.42951	0.244713	0.337781	0.040332	0.335272	0.284862	0.16792	0.715718	0.743081
3.0425	0.200545	0.048501	0.245739	0.304215	0.670448	0.853682	0.122742	0.431736	0.246436	0.340659	0.039603	0.336753	0.28464	0.167147	0.717701	0.743608
3.043	0.200325	0.048382	0.246214	0.304628	0.672748	0.856564	0.122275	0.433981	0.248142	0.343512	0.038891	0.33823	0.284409	0.166397	0.719592	0.744071
3.0435	0.200127	0.04827	0.246718	0.305061	0.674982	0.859444	0.121811	0.436245	0.249831	0.34634	0.038198	0.339704	0.284172	0.165669	0.721392	0.744473
3.044	0.199948	0.048166	0.247252	0.305515	0.677149	0.862324	0.12135	0.438531	0.251502	0.349142	0.037523	0.341175	0.28393	0.164964	0.723104	0.744813
3.0445	0.199788	0.048069	0.247816	0.305991	0.679249	0.865204	0.120892	0.440838	0.253156	0.351917	0.036864	0.342642	0.283684	0.164284	0.72473	0.745094
3.045	0.199648	0.047979	0.248411	0.30649	0.681281	0.868086	0.120437	0.443169	0.254793	0.354665	0.036224	0.344106	0.283437	0.163627	0.726273	0.745315
3.0455	0.199526	0.047897	0.24904	0.307012	0.683244	0.870969	0.119985	0.445523	0.256413	0.357385	0.0356	0.345565	0.28319	0.162994	0.727736	0.745479
3.046	0.199421	0.047822	0.249703	0.307559	0.685137	0.873855	0.119535	0.447903	0.258014	0.360076	0.034994	0.347021	0.282943	0.162387	0.729123	0.745588
3.0465	0.199332	0.047754	0.250401	0.308132	0.686959	0.876745	0.119087	0.450308	0.259598	0.362738	0.034404	0.348472	0.2827	0.161804	0.730437	0.745644
3.047	0.19926	0.047694	0.251135	0.308731	0.688709	0.87964	0.118641	0.452739	0.261164	0.365369	0.033831	0.349919	0.282461	0.161247	0.731681	0.745648
3.0475	0.199203	0.04764	0.251906	0.309357	0.690386	0.88254	0.118197	0.455198	0.262711	0.36797	0.033274	0.35136	0.282227	0.160716	0.732859	0.745602
3.048	0.19916	0.047594	0.252715	0.310009	0.691991	0.885446	0.117754	0.457684	0.264239	0.37054	0.032733	0.352795	0.282002	0.16021	0.733975	0.745508
3.0485	0.19913	0.047555	0.253562	0.31069	0.693522	0.88836	0.117313	0.460198	0.265748	0.373077	0.032208	0.354224	0.281786	0.15973	0.735031	0.745368
3.049	0.199113	0.047523	0.25445	0.311398	0.69498	0.891282	0.116873	0.46274	0.267238	0.375582	0.031699	0.355645	0.281581	0.159275	0.736031	0.745184
3.0495	0.199108	0.047498	0.255377	0.312135	0.696366	0.894212	0.116434	0.465311	0.268708	0.378053	0.031205	0.357059	0.281388	0.158847	0.736978	0.744956
3.05	0.199114	0.04748	0.256345	0.3129	0.697679	0.897152	0.115996	0.46791	0.27016	0.38049	0.030726	0.358463	0.28121	0.158445	0.737874	0.744687
3.0505	0.199129	0.047469	0.257355	0.313694	0.698921	0.900103	0.115559	0.470539	0.271593	0.382891	0.030262	0.359858	0.281047	0.158069	0.738723	0.744378
3.051	0.199153	0.047465	0.258406	0.314516	0.700093	0.903065	0.115122	0.473196	0.273007	0.385256	0.029813	0.361243	0.280902	0.157719	0.739527	0.744029
3.0515	0.199185	0.047468	0.2595	0.315368	0.701195	0.90604	0.114686	0.475882	0.274402	0.387585	0.029378	0.362615	0.280775	0.157394	0.740289	0.743642
3.052	0.199224	0.047478	0.260637	0.31625	0.702229	0.909027	0.11425	0.478596	0.27578	0.389875	0.028957	0.363976	0.280668	0.157096	0.741011	0.74322
3.0525	0.199269	0.047494	0.261817	0.317161	0.703195	0.912026	0.113815	0.481339	0.27714	0.392127	0.02855	0.365322	0.280582	0.156823	0.741695	0.742762
3.053	0.19932	0.047516	0.263041	0.318101	0.704094	0.915038	0.11338	0.484111	0.278482	0.394339	0.028158	0.366654	0.280519	0.156576	0.742345	0.742272
3.0535	0.199374	0.047545	0.264309	0.319071	0.704928	0.918062	0.112946	0.48691	0.279807	0.396511	0.027778	0.367971	0.280478	0.156354	0.742961	0.741752
3.054	0.199432	0.047581	0.265621	0.320071	0.705697	0.921098	0.112512	0.489738	0.281114	0.398642	0.027412	0.369273	0.280462	0.156157	0.743546	0.741202
3.0545	0.199493	0.047622	0.266978	0.321101	0.706402	0.924144	0.112078	0.492593	0.282405	0.400731	0.02706	0.370558	0.280472	0.155984	0.744101	0.740626
3.055	0.199556	0.04767	0.26838	0.322162	0.707043	0.9272	0.111645	0.495475	0.283679	0.402778	0.02672	0.371827	0.280508	0.155836	0.744628	0.740026
3.0555	0.19962	0.047723	0.269826	0.323252	0.707621	0.930264	0.111212	0.498383	0.284937	0.404783	0.026393	0.37308	0.280572	0.155712	0.74513	0.739402
3.056	0.199685	0.047782	0.271319	0.324373	0.708137	0.933335	0.11078	0.501318	0.28618	0.406745	0.026078	0.374317	0.280664	0.155612	0.745606	0.738759
3.0565	0.19975	0.047846	0.272856	0.325524	0.70859	0.936411	0.110348	0.504279	0.287407	0.408665	0.025776	0.375539	0.280786	0.155536	0.746059	0.738096
3.057	0.199815	0.047916	0.274439	0.326706	0.708983	0.939493	0.109917	0.507265	0.288619	0.410544	0.025486	0.376747	0.280938	0.155482	0.746489	0.737416
3.0575	0.199879	0.047991	0.276069	0.327918	0.709317	0.942576	0.109486	0.510278	0.289818	0.412382	0.025208	0.37794	0.28112	0.155451	0.746896	0.73672
3.058	0.199941	0.04807	0.277744	0.32916	0.709592	0.945661	0.109055	0.513316	0.291002	0.41418	0.024941	0.379119	0.281334	0.155442	0.747283	0.73601
3.0585	0.200002	0.048155	0.279465	0.330433	0.709811	0.948744	0.108625	0.516381	0.292174	0.415939	0.024687	0.380286	0.28158	0.155455	0.747649	0.735287
3.059	0.200061	0.048244	0.281232	0.331737	0.709975	0.951825	0.108195	0.519471	0.293333	0.41766	0.024443	0.381443	0.281858	0.155489	0.747996	0.734552
3.0595	0.200116	0.048337	0.283045	0.33307	0.710086	0.954902	0.107766	0.522588	0.29448	0.419344	0.024211	0.382589	0.282169	0.155543	0.748325	0.733807
3.06	0.200168	0.048435	0.284904	0.334433	0.710146	0.957973	0.107336	0.525732	0.295616	0.420993	0.023989	0.383728	0.282513	0.155618	0.748637	0.733053
3.0605	0.200216	0.048537	0.286809	0.335826	0.710158	0.961038	0.106908	0.528902	0.296742	0.422606	0.023778	0.384861	0.28289	0.155712	0.748933	0.73229
3.061	0.200258	0.048644	0.28876	0.337249	0.710124	0.964094	0.10648	0.532099	0.297858	0.424186	0.023578	0.385989	0.283301	0.155826	0.749214	0.731519
3.0615	0.200296	0.048754	0.290756	0.338702	0.710047	0.967141	0.106052	0.535324	0.298966	0.425732	0.023388	0.387114	0.283746	0.155957	0.749482	0.730741
3.062	0.200327	0.048867	0.292798	0.340185	0.709928	0.970177	0.105625	0.538578	0.300065	0.427246	0.023208	0.388237	0.284225	0.156107	0.749737	0.729956
3.0625	0.200351	0.048985	0.294885	0.341698	0.709772	0.973201	0.1052	0.541859	0.301157	0.42873	0.023039	0.38936	0.284738	0.156274	0.749979	0.729164
3.063	0.200368	0.049105	0.297016	0.343241	0.709579	0.976211	0.104775	0.545168	0.302243	0.430184	0.022879	0.390484	0.285286	0.156458	0.750211	0.728367
3.0635	0.200377	0.049229	0.299192	0.344816	0.709352	0.979206	0.104352	0.548504	0.303325	0.43161	0.022728	0.39161	0.285868	0.156657	0.750432	0.727565
3.064	0.200377	0.049356	0.301412	0.346422	0.709094	0.982182	0.103931	0.551868	0.304403	0.433009	0.022587	0.392739	0.286485	0.156873	0.750645	0.726758
3.0645	0.200369	0.049486	0.303676	0.348059	0.708805	0.985139	0.103512	0.555259	0.305478	0.434384	0.022456	0.393872	0.287136	0.157103	0.75085	0.725948
3.065	0.200352	0.049618	0.305982	0.349728	0.708487	0.988074	0.103096	0.558676	0.306552	0.435735	0.022333	0.39501	0.287822	0.157348	0.751049	0.725135
3.0655	0.200327	0.049753	0.30833	0.35143	0.708143	0.990985	0.102682	0.562119	0.307626	0.437066	0.022219	0.396154	0.288543	0.157607	0.751243	0.72432
3.066	0.200292	0.049891	0.310719	0.353165	0.707773	0.993868	0.102271	0.565588	0.3087	0.438378	0.022114	0.397305	0.289297	0.157879	0.751435	0.723505
3.0665	0.200247	0.050031	0.313149	0.354932	0.707379	0.99672	0.101864	0.569082	0.309777	0.439673	0.022018	0.398463	0.290086	0.158164	0.751626	0.722691
3.067	0.200194	0.050173	0.315618	0.356733	0.706962	0.999539	0.101459	0.572601	0.310857	0.440953	0.02193	0.39963	0.290908	0.158461	0.751817	0.721878
3.0675	0.200131	0.050317	0.318125	0.358566	0.706524	1.00232	0.101058	0.576144	0.311942	0.442219	0.02185	0.400806	0.291765	0.15877	0.75201	0.721068
3.068	0.200059	0.050463	0.320669	0.360432	0.706067	1.00506	0.100661	0.579711	0.313032	0.443475	0.021779	0.401991	0.292655	0.15909	0.752206	0.720262
3.0685	0.199977	0.050611	0.32325	0.362332	0.705591	1.007756	0.100267	0.583302	0.314128	0.44472	0.021715	0.403186	0.293578	0.15942	0.752407	0.719461
3.069	0.199886	0.050761	0.325865	0.364263	0.705099	1.010402	0.099877	0.586915	0.315232	0.445958	0.021659	0.40439	0.294535	0.15976	0.752614	0.718665
3.0695	0.199786	0.050913	0.328515	0.366227	0.704591	1.012996	0.099492	0.590551	0.316344	0.447191	0.021611	0.405606	0.295524	0.16011	0.752828	0.717875
3.07	0.199676	0.051067	0.331197	0.368223	0.704069	1.015533	0.09911	0.594209	0.317466	0.44842	0.02157	0.406831	0.296547	0.160469	0.75305	0.717093
3.0705	0.199556	0.051222	0.33391	0.37025	0.703535	1.01801	0.098732	0.597888	0.318597	0.449648	0.021536	0.408067	0.297602	0.160836	0.753281	0.71632
3.071	0.199426	0.051378	0.336653	0.372307	0.702988	1.020421	0.098359	0.601588	0.319739	0.450877	0.021509	0.409313	0.298688	0.161211	0.753524	0.715557
3.0715	0.199287	0.051537	0.339424	0.374395	0.702431	1.022762	0.09799	0.605309	0.320891	0.45211	0.02149	0.410568	0.299807	0.161593	0.753778	0.714806
3.072	0.199137	0.051696	0.342222	0.376512	0.701862	1.02503	0.097625	0.609051	0.322056	0.453349	0.021477	0.411833	0.300957	0.161983	0.754046	0.714067
3.0725	0.198977	0.051857	0.345045	0.378657	0.701284	1.02722	0.097263	0.612812	0.323233	0.454595	0.02147	0.413106	0.302138	0.162379	0.754329	0.713342
3.073	0.198806	0.052019	0.347891	0.380831	0.700696	1.029328	0.096906	0.616593	0.324422	0.455852	0.02147	0.414388	0.303348	0.162781	0.754628	0.712633
3.0735	0.198624	0.052183	0.350759	0.383031	0.700097	1.031352	0.096554	0.620392	0.325625	0.457121	0.021476	0.415677	0.304588	0.163189	0.754944	0.71194
3.074	0.19843	0.052347	0.353646	0.385258	0.69949	1.033288	0.096205	0.624208	0.326841	0.458404	0.021489	0.416973	0.305857	0.163602	0.75528	0.711264
3.0745	0.198224	0.052513	0.356551	0.387511	0.698872	1.035134	0.09586	0.628041	0.328072	0.459703	0.021507	0.418275	0.307155	0.164022	0.755635	0.710608
3.075	0.198005	0.052681	0.359471	0.389788	0.698245	1.036888	0.09552	0.63189	0.329316	0.461019	0.021531	0.419582	0.308479	0.164446	0.756011	0.709971
3.0755	0.197774	0.05285	0.362404	0.392088	0.697608	1.038547	0.095184	0.635753	0.330576	0.462355	0.021561	0.420893	0.309831	0.164876	0.756408	0.709356
3.076	0.197529	0.05302	0.365349	0.394411	0.696961	1.040109	0.094852	0.639629	0.331851	0.463713	0.021596	0.422208	0.311208	0.165311	0.756828	0.708763
3.0765	0.197271	0.053192	0.368302	0.396755	0.696304	1.041569	0.094525	0.643517	0.333141	0.465093	0.021637	0.423525	0.312612	0.165751	0.75727	0.708194
3.077	0.196999	0.053366	0.371262	0.399119	0.695638	1.042926	0.094203	0.647417	0.334447	0.466499	0.021683	0.424843	0.31404	0.166196	0.757736	0.707648
3.0775	0.196713	0.053541	0.374226	0.401503	0.694961	1.044176	0.093887	0.651328	0.335769	0.46793	0.021734	0.426161	0.315492	0.166645	0.758225	0.707128
3.078	0.196414	0.053718	0.377192	0.403904	0.694273	1.045316	0.093575	0.655249	0.337108	0.46939	0.021791	0.427478	0.316967	0.1671	0.758738	0.706634
3.0785	0.1961	0.053897	0.380157	0.406323	0.693573	1.046341	0.093269	0.65918	0.338464	0.47088	0.021852	0.428792	0.318465	0.16756	0.759274	0.706167
3.079	0.195773	0.054077	0.383118	0.408757	0.69286	1.04725	0.092969	0.663118	0.339837	0.472401	0.021918	0.4301	0.319984	0.168025	0.759834	0.705727
3.0795	0.195433	0.05426	0.386074	0.411207	0.692134	1.04804	0.092675	0.667065	0.341228	0.473956	0.021989	0.431403	0.321524	0.168496	0.760418	0.705315
3.08	0.19508	0.054444	0.389022	0.413672	0.691393	1.048708	0.092387	0.671018	0.342637	0.475546	0.022064	0.432698	0.323084	0.168972	0.761024	0.704933
3.0805	0.194715	0.054629	0.39196	0.41615	0.690637	1.049253	0.092105	0.674978	0.344064	0.477173	0.022144	0.433982	0.324664	0.169454	0.761652	0.704581
3.081	0.194337	0.054817	0.394886	0.418639	0.689865	1.049675	0.09183	0.678943	0.345509	0.478837	0.022228	0.435255	0.326263	0.169942	0.762301	0.70426
3.0815	0.193947	0.055006	0.397798	0.42114	0.689075	1.049972	0.091562	0.682912	0.346973	0.480541	0.022317	0.436515	0.327879	0.170436	0.76297	0.703971
3.082	0.193544	0.055197	0.400696	0.423651	0.688267	1.050145	0.0913	0.686884	0.348455	0.482286	0.02241	0.437761	0.329514	0.170936	0.763658	0.703716
3.0825	0.193131	0.05539	0.403577	0.426172	0.687441	1.050193	0.091045	0.69086	0.349955	0.484072	0.022508	0.438991	0.331164	0.171442	0.764365	0.703495
3.083	0.192705	0.055584	0.40644	0.428702	0.686594	1.050116	0.090797	0.694837	0.351473	0.485901	0.022609	0.440205	0.332831	0.171954	0.765088	0.703309
3.0835	0.192269	0.05578	0.409286	0.43124	0.685727	1.049913	0.090556	0.698815	0.353008	0.487774	0.022715	0.441402	0.334513	0.172472	0.765828	0.703158
3.084	0.191821	0.055978	0.412114	0.433786	0.684839	1.049585	0.090322	0.702794	0.354562	0.489692	0.022825	0.442582	0.336209	0.172997	0.766582	0.703044
3.0845	0.191362	0.056178	0.414923	0.436339	0.683928	1.049131	0.090095	0.706773	0.356132	0.491656	0.022938	0.443744	0.337919	0.173528	0.767349	0.702966
3.085	0.190892	0.056379	0.417713	0.438899	0.682993	1.048549	0.089875	0.710751	0.357719	0.493666	0.023056	0.444887	0.339642	0.174065	0.76813	0.702925
3.0855	0.190412	0.056581	0.420483	0.441465	0.682033	1.047841	0.089663	0.714727	0.359323	0.495723	0.023177	0.446011	0.341378	0.174609	0.768921	0.702922
3.086	0.189921	0.056785	0.423232	0.444036	0.681046	1.047006	0.089457	0.718702	0.360943	0.497828	0.023302	0.447115	0.343125	0.17516	0.769724	0.702955
3.0865	0.18942	0.056991	0.42596	0.446611	0.680031	1.046044	0.089259	0.722674	0.362577	0.49998	0.023431	0.4482	0.344884	0.175717	0.770536	0.703024
3.087	0.188909	0.057197	0.428667	0.44919	0.678985	1.044955	0.089067	0.726643	0.364226	0.50218	0.023563	0.449265	0.346654	0.176281	0.771356	0.703131
3.0875	0.188388	0.057405	0.431352	0.451772	0.677908	1.043742	0.088883	0.730608	0.365889	0.504429	0.023699	0.450309	0.348435	0.176851	0.772184	0.703273
3.088	0.187859	0.057614	0.434014	0.454355	0.676797	1.042403	0.088706	0.734569	0.367565	0.506725	0.023838	0.451334	0.350226	0.177429	0.773018	0.703452
3.0885	0.187321	0.057825	0.436653	0.45694	0.675653	1.04094	0.088536	0.738524	0.369253	0.509069	0.023981	0.452337	0.352027	0.178013	0.773857	0.703666
3.089	0.186774	0.058036	0.43927	0.459527	0.674473	1.039355	0.088374	0.742472	0.370952	0.511461	0.024127	0.45332	0.353837	0.178605	0.7747	0.703914
3.0895	0.186219	0.058247	0.441863	0.462114	0.673257	1.037647	0.088219	0.746412	0.372662	0.513899	0.024277	0.454282	0.355657	0.179204	0.775544	0.704196
3.09	0.185657	0.05846	0.444434	0.464703	0.672004	1.035819	0.088071	0.750342	0.37438	0.516385	0.024429	0.455223	0.357484	0.179809	0.776388	0.704511
3.0905	0.185088	0.058673	0.446983	0.467293	0.670714	1.033871	0.08793	0.75426	0.376107	0.518916	0.024585	0.456143	0.359319	0.180422	0.777231	0.704858
3.091	0.184511	0.058887	0.44951	0.469884	0.669386	1.031804	0.087797	0.758165	0.377841	0.521494	0.024743	0.457041	0.36116	0.181042	0.778069	0.705235
3.0915	0.183929	0.059102	0.452015	0.472477	0.668019	1.029617	0.087671	0.762055	0.379583	0.524116	0.024904	0.457918	0.363008	0.181669	0.778903	0.705641
3.092	0.183341	0.059317	0.454498	0.475072	0.666613	1.027312	0.087552	0.765927	0.38133	0.526783	0.025069	0.458774	0.36486	0.182304	0.779729	0.706075
3.0925	0.182747	0.059532	0.45696	0.477668	0.665165	1.024889	0.08744	0.76978	0.383084	0.529494	0.025236	0.45961	0.366716	0.182945	0.780547	0.706534
3.093	0.182149	0.059747	0.459399	0.480266	0.663676	1.022348	0.087335	0.773611	0.384842	0.532248	0.025405	0.460425	0.368575	0.183593	0.781354	0.707017
3.0935	0.181547	0.059963	0.461817	0.482867	0.662144	1.01969	0.087237	0.777418	0.386603	0.535046	0.025577	0.461221	0.370435	0.184248	0.78215	0.707524
3.094	0.18094	0.060179	0.464212	0.48547	0.66057	1.016915	0.087146	0.781201	0.388369	0.537887	0.025752	0.461999	0.372296	0.18491	0.782933	0.708052
3.0945	0.18033	0.060395	0.466584	0.488078	0.658952	1.014022	0.087061	0.784957	0.390136	0.54077	0.025929	0.462758	0.374157	0.185578	0.783701	0.708601
3.095	0.179717	0.06061	0.468932	0.49069	0.657291	1.011014	0.086982	0.788687	0.391905	0.543695	0.026108	0.463499	0.376015	0.186254	0.784454	0.709171
3.0955	0.1791	0.060826	0.471257	0.493306	0.655587	1.007891	0.08691	0.792388	0.393675	0.54666	0.026289	0.464224	0.377871	0.186937	0.785192	0.70976
3.096	0.178481	0.06104	0.473556	0.495928	0.653839	1.004654	0.086843	0.796062	0.395444	0.549666	0.026473	0.464933	0.379723	0.187627	0.785913	0.710369
3.0965	0.177859	0.061254	0.47583	0.498555	0.652049	1.001304	0.086783	0.799706	0.397211	0.552711	0.026658	0.465625	0.381572	0.188324	0.786617	0.710997
3.097	0.177234	0.061468	0.478077	0.501188	0.650216	0.997842	0.086727	0.803322	0.398976	0.555795	0.026845	0.466303	0.383415	0.189029	0.787305	0.711646
3.0975	0.176608	0.06168	0.480297	0.503827	0.648342	0.99427	0.086677	0.806907	0.400737	0.558917	0.027034	0.466965	0.385253	0.189742	0.787976	0.712314
3.098	0.175979	0.061891	0.48249	0.506472	0.646427	0.990589	0.086632	0.810463	0.402495	0.562075	0.027225	0.467613	0.387086	0.190463	0.78863	0.713001
3.0985	0.175349	0.062102	0.484653	0.509122	0.644472	0.986799	0.086592	0.813987	0.404248	0.565269	0.027417	0.468246	0.388912	0.191193	0.789268	0.713707
3.099	0.174716	0.062311	0.486786	0.511778	0.642477	0.982902	0.086557	0.817481	0.405996	0.568498	0.027611	0.468865	0.390732	0.19193	0.789888	0.714432
3.0995	0.174082	0.062519	0.488888	0.51444	0.640443	0.978897	0.086525	0.820943	0.40774	0.57176	0.027806	0.469472	0.392544	0.192676	0.790491	0.715176
3.1	0.173446	0.062726	0.490959	0.517107	0.63837	0.974786	0.086498	0.824375	0.409479	0.575053	0.028002	0.470065	0.39435	0.19343	0.791076	0.715937
3.1005	0.172809	0.062932	0.492999	0.51978	0.63626	0.970569	0.086475	0.827778	0.411214	0.578378	0.028199	0.470647	0.396146	0.194193	0.791643	0.716716
3.101	0.17217	0.063137	0.495007	0.522457	0.634112	0.966248	0.086455	0.831152	0.412943	0.581732	0.028396	0.471218	0.397934	0.194964	0.792192	0.717513
3.1015	0.171529	0.063341	0.496983	0.525139	0.631926	0.961823	0.086438	0.834501	0.414667	0.585114	0.028595	0.471777	0.399713	0.195744	0.792722	0.718327
3.102	0.170887	0.063543	0.498928	0.527826	0.629705	0.957296	0.086423	0.837827	0.416385	0.588522	0.028794	0.472327	0.40148	0.196532	0.793234	0.719158
3.1025	0.170244	0.063745	0.50084	0.530518	0.627447	0.952668	0.086411	0.841132	0.418099	0.591955	0.028993	0.472868	0.403236	0.197329	0.793728	0.720006
3.103	0.169599	0.063945	0.50272	0.533214	0.625154	0.947943	0.086401	0.844418	0.419807	0.595411	0.029192	0.4734	0.40498	0.198134	0.794203	0.720869
3.1035	0.168953	0.064144	0.504567	0.535914	0.622826	0.94312	0.086393	0.847688	0.42151	0.598888	0.029392	0.473924	0.406709	0.198947	0.794661	0.721749
3.104	0.168306	0.064342	0.506382	0.538617	0.620463	0.938204	0.086385	0.850942	0.423207	0.602384	0.029592	0.47444	0.408424	0.199768	0.795101	0.722644
3.1045	0.167656	0.064538	0.508164	0.541324	0.618066	0.933195	0.086379	0.854184	0.424898	0.605898	0.029791	0.47495	0.410122	0.200597	0.795525	0.723554
3.105	0.167005	0.064733	0.509912	0.544033	0.615635	0.928098	0.086372	0.857415	0.426584	0.609428	0.02999	0.475453	0.411803	0.201433	0.795933	0.724478
