datacolumns 17
datarows 121
time	addmag_r	bicfemlh_r	gaslat_r	gasmed_r	gmax_r	gmed_r	gra_r	perlong_r	recfem_r	sar_r	semimem_r	sol_r	tfl_r	tibant_r	vaslat_r	vasmed_r
2.384 0.282612 0.022912 0.016797 0.009578 0.010395 0.044394 0.107029 0.037993 0.009472 0.128001 0.065831 0.009576 0.032558 0.207907 0.003811 0.004688
2.388 0.270667 0.021986 0.016089 0.009512 0.01038 0.042166 0.094501 0.036865 0.009094 0.121439 0.067508 0.009234 0.031225 0.214177 0.003429 0.004531
2.392 0.25567 0.021507 0.015406 0.009406 0.01057 0.040113 0.08258 0.035576 0.00868 0.114463 0.069238 0.008924 0.02982 0.220241 0.003049 0.004361
2.396 0.238468 0.021438 0.014742 0.009257 0.010977 0.038297 0.071329 0.034184 0.008235 0.107066 0.070974 0.008639 0.028354 0.22564 0.002686 0.004185
2.4 0.219884 0.021737 0.014089 0.009061 0.011602 0.036759 0.060846 0.032739 0.00777 0.099242 0.072664 0.008376 0.026835 0.229889 0.002351 0.004007
2.404 0.200685 0.022369 0.013445 0.008821 0.012439 0.035509 0.051235 0.031291 0.007312 0.091083 0.074268 0.008136 0.025266 0.232573 0.002056 0.003831
2.408 0.181575 0.023311 0.01281 0.008538 0.013481 0.034572 0.042563 0.029889 0.006885 0.082786 0.075747 0.007924 0.023668 0.233209 0.00181 0.003666
2.412 0.163167 0.024537 0.012186 0.00821 0.014726 0.034058 0.034863 0.028566 0.006513 0.074553 0.077054 0.007742 0.022082 0.231602 0.001621 0.003521
2.416 0.145926 0.026011 0.011574 0.007837 0.016175 0.034119 0.028135 0.027352 0.006218 0.066555 0.078167 0.007589 0.020584 0.227913 0.001497 0.003402
2.42 0.130161 0.027702 0.010983 0.007423 0.017822 0.034902 0.022354 0.02629 0.006017 0.058925 0.07908 0.007459 0.019248 0.222431 0.001448 0.00332
2.424 0.116038 0.02957 0.01042 0.006973 0.019645 0.036538 0.017482 0.025426 0.005926 0.051782 0.079754 0.007348 0.018132 0.215445 0.001478 0.003283
2.428 0.103606 0.03155 0.009888 0.006493 0.021615 0.039157 0.01346 0.024787 0.005957 0.045221 0.080083 0.007254 0.017276 0.207211 0.001596 0.003302
2.432 0.092833 0.033551 0.009385 0.005981 0.023703 0.042882 0.010218 0.024389 0.006118 0.039328 0.079913 0.00717 0.016705 0.197994 0.001809 0.003386
2.436 0.083696 0.035487 0.00891 0.005437 0.025884 0.047813 0.007677 0.024237 0.006415 0.034156 0.079186 0.00709 0.016428 0.188131 0.002124 0.003545
2.44 0.076206 0.037343 0.00846 0.004853 0.028121 0.054059 0.005763 0.024322 0.006854 0.029726 0.078012 0.007001 0.01644 0.177994 0.002555 0.003786
2.444 0.070336 0.039192 0.008037 0.00422 0.030376 0.061725 0.004399 0.024624 0.007443 0.02603 0.076518 0.006886 0.01674 0.167897 0.00312 0.004119
2.448 0.065973 0.041118 0.007641 0.003527 0.032618 0.070891 0.003513 0.025111 0.008183 0.023036 0.074769 0.006727 0.01733 0.15801 0.003837 0.004548
2.452 0.062939 0.04318 0.007267 0.002764 0.034807 0.081614 0.003033 0.025752 0.009071 0.02069 0.072794 0.006514 0.018218 0.148407 0.004726 0.005075
2.456 0.061013 0.045409 0.006905 0.001918 0.036886 0.093911 0.002893 0.026555 0.010096 0.018931 0.070617 0.006234 0.019419 0.139196 0.005804 0.005697
2.46 0.059938 0.047806 0.006543 0.000981 0.038797 0.107784 0.00303 0.027569 0.011237 0.017697 0.068244 0.005881 0.020937 0.1305 0.007086 0.006405
2.464 0.059461 0.050351 0.006171 0.0 0.040476 0.123235 0.003388 0.02884 0.012468 0.01692 0.065688 0.005449 0.022763 0.122362 0.008579 0.007188
2.468 0.059401 0.053035 0.005779 0.0 0.041862 0.140255 0.00392 0.030411 0.013749 0.016532 0.063006 0.004933 0.024865 0.114781 0.010287 0.00803
2.472 0.05978 0.055912 0.00536 0.0 0.042887 0.158738 0.004583 0.032314 0.015026 0.016461 0.060394 0.00433 0.027186 0.107765 0.012207 0.008908
2.476 0.06077 0.059142 0.004911 0.0 0.043498 0.178441 0.005334 0.034575 0.01624 0.016627 0.058184 0.003645 0.029653 0.10138 0.014329 0.009797
2.48 0.062526 0.062892 0.004429 0.0 0.043671 0.19898 0.006131 0.037207 0.017326 0.016933 0.056742 0.002889 0.032184 0.095673 0.016634 0.010669
2.484 0.065149 0.067307 0.003911 0.0 0.043449 0.219828 0.006938 0.040192 0.018219 0.01728 0.056412 0.002073 0.034683 0.090671 0.019091 0.011493
2.488 0.068706 0.0725 0.003354 0.0 0.042929 0.240315 0.007726 0.043499 0.018888 0.017581 0.0575 0.001215 0.037022 0.086367 0.021664 0.012239
2.492 0.073218 0.078537 0.002761 0.0 0.042264 0.259669 0.008476 0.047106 0.019325 0.017767 0.060256 0.000335 0.039045 0.082719 0.02431 0.012887
2.496 0.078639 0.085425 0.002134 0.0 0.041604 0.276971 0.009182 0.05098 0.019567 0.017798 0.064873 0.0 0.040564 0.079654 0.026977 0.013421
2.5 0.084848 0.093102 0.001477 0.0 0.041091 0.291237 0.009838 0.055045 0.019664 0.017667 0.071471 0.0 0.041382 0.077058 0.029595 0.013838
2.504 0.091654 0.101427 0.000795 0.0 0.040866 0.30152 0.010438 0.059207 0.019654 0.017385 0.080103 0.0 0.041336 0.074781 0.03208 0.014137
2.508 0.09884 0.110214 9.6e-05 0.0 0.041064 0.307228 0.010999 0.063394 0.019565 0.016984 0.090763 0.0 0.040345 0.072676 0.034336 0.01432
2.512 0.106191 0.119227 0.0 0.0 0.041794 0.308295 0.011557 0.067583 0.019409 0.016499 0.103386 0.0 0.038502 0.070672 0.03626 0.01439
2.516 0.113552 0.12818 0.0 0.0 0.043134 0.304923 0.01218 0.071776 0.019194 0.015962 0.117886 0.0 0.035992 0.068847 0.037745 0.01435
2.52 0.120799 0.136775 0.0 0.0 0.045136 0.297169 0.012948 0.075992 0.018918 0.015391 0.134162 0.0 0.033005 0.067436 0.038672 0.014198
2.524 0.127741 0.144788 0.0 0.004539 0.047842 0.285141 0.013941 0.080232 0.018575 0.014802 0.152095 0.0 0.029709 0.066681 0.038971 0.013932
2.528 0.134174 0.152318 0.0 0.011312 0.051272 0.269309 0.015249 0.084446 0.018158 0.014206 0.171516 0.0 0.026247 0.066777 0.038651 0.013556
2.532 0.140006 0.159637 0.0 0.019954 0.055452 0.250595 0.016975 0.088541 0.017666 0.013619 0.192255 0.00054 0.022737 0.067865 0.037779 0.013086
2.536 0.145352 0.166975 0.0 0.030681 0.060432 0.230065 0.019244 0.092428 0.017109 0.013053 0.214265 0.003255 0.019273 0.070047 0.036469 0.012553
2.54 0.150479 0.174488 0.0 0.043692 0.066269 0.208685 0.022203 0.096062 0.016508 0.012524 0.237597 0.006908 0.01592 0.073399 0.03486 0.012015
2.544 0.155619 0.18227 0.0 0.059158 0.073031 0.187284 0.026022 0.099395 0.015879 0.012044 0.262354 0.011628 0.012727 0.077992 0.033129 0.011572
2.548 0.160891 0.190398 0.001868 0.077201 0.080761 0.166501 0.030858 0.102399 0.015231 0.011628 0.288553 0.017539 0.009725 0.083904 0.031477 0.01133
2.552 0.166309 0.199044 0.004685 0.097875 0.089452 0.146763 0.036848 0.105016 0.014597 0.0113 0.316021 0.024757 0.006943 0.091156 0.030102 0.011404
2.556 0.17182 0.208435 0.008444 0.121155 0.099059 0.128336 0.044099 0.107155 0.01402 0.011089 0.344438 0.033382 0.00441 0.099703 0.029224 0.011924
2.56 0.177352 0.218652 0.013295 0.146904 0.109484 0.111414 0.052691 0.108803 0.013548 0.011021 0.373405 0.043494 0.002158 0.109495 0.029065 0.013035
2.564 0.183014 0.229689 0.01939 0.174861 0.120635 0.09627 0.062683 0.11007 0.013225 0.011113 0.40269 0.055144 0.000225 0.120464 0.02983 0.014909
2.568 0.189115 0.241477 0.026886 0.204702 0.132428 0.08328 0.074113 0.111153 0.013091 0.011383 0.43221 0.068328 0.0 0.13255 0.031707 0.017749
2.572 0.196056 0.253817 0.035941 0.236093 0.144775 0.072816 0.087 0.11225 0.013176 0.01184 0.461881 0.082984 0.0 0.14571 0.034891 0.021773
2.576 0.204142 0.266453 0.046696 0.268598 0.157544 0.065198 0.101315 0.113597 0.013504 0.012492 0.491336 0.098984 0.0 0.159974 0.039609 0.027209
2.58 0.213561 0.278987 0.059272 0.301686 0.17058 0.060687 0.116963 0.115474 0.014097 0.013344 0.519966 0.116172 0.0 0.175426 0.04613 0.034279
2.584 0.224469 0.291008 0.073797 0.334787 0.183762 0.059501 0.133741 0.118088 0.014975 0.014396 0.547111 0.134384 0.0 0.192225 0.054763 0.043211
2.588 0.236968 0.302104 0.090374 0.367229 0.197093 0.061858 0.151332 0.121552 0.016157 0.015643 0.572252 0.153479 0.0 0.210478 0.065868 0.054219
2.592 0.251087 0.311807 0.109055 0.398157 0.210601 0.067995 0.169319 0.125869 0.017663 0.01707 0.594867 0.173355 0.001624 0.230206 0.079853 0.067485
2.596 0.266871 0.319744 0.129842 0.426602 0.224342 0.07815 0.187189 0.130977 0.019514 0.018663 0.614586 0.193947 0.005125 0.251267 0.09715 0.083142
2.6 0.284337 0.325598 0.152674 0.451713 0.238317 0.092569 0.204444 0.13678 0.021724 0.020406 0.631158 0.21511 0.009811 0.27331 0.118141 0.101268
2.604 0.303417 0.32914 0.177427 0.472877 0.252542 0.1115 0.220598 0.143149 0.024301 0.022287 0.644162 0.236697 0.015812 0.295795 0.143132 0.12187
2.608 0.323883 0.330195 0.203958 0.489811 0.267093 0.135117 0.235155 0.149947 0.027256 0.024316 0.653232 0.258593 0.02325 0.318082 0.172348 0.144872
2.612 0.345381 0.328591 0.232102 0.502539 0.282082 0.163485 0.247664 0.156996 0.030607 0.026498 0.657978 0.28056 0.032234 0.339612 0.205887 0.170129
2.616 0.367475 0.324061 0.261568 0.511119 0.297623 0.196589 0.257796 0.164082 0.034363 0.028831 0.65796 0.302232 0.04285 0.360031 0.243693 0.197501
2.62 0.389487 0.31655 0.291948 0.515895 0.313813 0.234372 0.265352 0.171003 0.038527 0.031307 0.652825 0.323147 0.055157 0.378895 0.285498 0.226746
2.624 0.410589 0.306268 0.322951 0.517543 0.330786 0.276834 0.270396 0.177586 0.043119 0.033953 0.642308 0.34298 0.06917 0.395519 0.330828 0.257554
2.628 0.429944 0.293681 0.354581 0.516616 0.348514 0.323992 0.27305 0.183655 0.048148 0.036814 0.626348 0.361723 0.084843 0.409259 0.37903 0.289683
2.632 0.446659 0.279333 0.386971 0.513472 0.366736 0.375714 0.273599 0.189048 0.053601 0.039961 0.605127 0.379238 0.102055 0.419705 0.429301 0.322937
2.636 0.460001 0.26383 0.420125 0.508489 0.385126 0.431738 0.272519 0.193729 0.059438 0.043489 0.57945 0.39529 0.120626 0.426807 0.480656 0.357048
2.64 0.469412 0.247844 0.453809 0.502415 0.403381 0.491808 0.270181 0.197938 0.065637 0.047507 0.550325 0.40996 0.140323 0.430472 0.532074 0.391594
2.644 0.474307 0.231869 0.487521 0.496424 0.421312 0.55549 0.266726 0.202103 0.072202 0.052141 0.518374 0.423502 0.160836 0.430552 0.582564 0.426035
2.648 0.474089 0.216138 0.520515 0.491571 0.438798 0.622101 0.262118 0.206663 0.079152 0.057494 0.484071 0.43651 0.181811 0.427169 0.631116 0.459775
2.652 0.468519 0.200694 0.552265 0.488535 0.455783 0.690755 0.256292 0.212038 0.086481 0.063639 0.448411 0.44958 0.202849 0.420532 0.676508 0.492109
2.656 0.457681 0.185541 0.58267 0.487631 0.472241 0.760709 0.249084 0.218592 0.09419 0.070629 0.412736 0.463119 0.223596 0.410791 0.717177 0.522471
2.66 0.441924 0.170709 0.611855 0.488887 0.487835 0.831382 0.240421 0.22664 0.102264 0.078513 0.378263 0.477295 0.243798 0.398047 0.75191 0.550433
2.664 0.422324 0.156314 0.63988 0.492289 0.501983 0.902369 0.230385 0.236456 0.110695 0.087322 0.345953 0.492336 0.263352 0.3826 0.779998 0.575648
2.668 0.400129 0.142645 0.666625 0.497952 0.514034 0.973127 0.219128 0.248245 0.119484 0.097105 0.316636 0.508482 0.282137 0.364943 0.800891 0.597695
2.672 0.376539 0.13004 0.691917 0.506205 0.523604 1.042946 0.206939 0.262183 0.128585 0.107891 0.291065 0.525951 0.299963 0.34562 0.813902 0.616224
2.676 0.352834 0.118895 0.715586 0.517228 0.530418 1.11088 0.194076 0.278389 0.137905 0.11964 0.269851 0.544797 0.316645 0.325015 0.818012 0.630562
2.68 0.33014 0.109557 0.737171 0.530848 0.534288 1.17529 0.180818 0.296838 0.147342 0.132292 0.253389 0.564775 0.331926 0.303594 0.812431 0.639923
2.684 0.309286 0.102314 0.75604 0.546709 0.535048 1.233873 0.16749 0.317398 0.156732 0.145703 0.241915 0.585667 0.345599 0.282201 0.797317 0.643942
2.688 0.290822 0.097409 0.771836 0.564231 0.532839 1.284097 0.154388 0.339753 0.165889 0.159611 0.235483 0.607378 0.35745 0.261777 0.77352 0.642644
2.692 0.275086 0.095041 0.784872 0.582733 0.528198 1.32383 0.141791 0.363487 0.174546 0.173643 0.234003 0.629807 0.367293 0.24305 0.742653 0.636332
2.696 0.26225 0.095356 0.795759 0.601583 0.521462 1.351939 0.129908 0.388272 0.182312 0.187299 0.237368 0.652484 0.375011 0.226492 0.706588 0.625384
2.7 0.252337 0.098472 0.805182 0.620311 0.512797 1.367976 0.118894 0.41394 0.188665 0.199915 0.245564 0.674978 0.380481 0.212359 0.667174 0.61038
2.704 0.245188 0.104449 0.814001 0.638784 0.502475 1.371796 0.108851 0.440361 0.193039 0.210732 0.258441 0.696776 0.383489 0.200789 0.626164 0.591693
2.708 0.240536 0.113257 0.822959 0.656834 0.490776 1.362986 0.09979 0.467299 0.194947 0.219022 0.275612 0.717579 0.383878 0.191768 0.585096 0.569647
2.712 0.238121 0.124776 0.832256 0.674232 0.478532 1.341773 0.091682 0.494497 0.194179 0.224199 0.296455 0.736756 0.381479 0.185161 0.54518 0.544867
2.716 0.237702 0.138791 0.841482 0.691042 0.46698 1.309821 0.084481 0.521867 0.191115 0.226067 0.32007 0.753552 0.376379 0.180855 0.507321 0.518263
2.72 0.238896 0.154965 0.850498 0.707725 0.457306 1.269531 0.078122 0.549664 0.186428 0.224692 0.345288 0.767638 0.368964 0.178723 0.472147 0.491119
2.724 0.241274 0.172819 0.859295 0.724858 0.450407 1.223101 0.072583 0.578082 0.180762 0.220275 0.370729 0.778761 0.359887 0.178669 0.440214 0.464852
2.728 0.244352 0.191756 0.867419 0.742622 0.446953 1.172544 0.06788 0.607065 0.174712 0.213398 0.39504 0.786561 0.350006 0.18053 0.412115 0.440845
2.732 0.247677 0.211104 0.87412 0.760612 0.447292 1.119549 0.064097 0.636448 0.168741 0.204726 0.417088 0.790363 0.340043 0.184061 0.388507 0.420152
2.736 0.250954 0.23018 0.878438 0.777985 0.451365 1.065952 0.061331 0.665822 0.163222 0.194813 0.435998 0.789459 0.330631 0.188915 0.369872 0.403421
2.74 0.25411 0.248335 0.879074 0.793702 0.458783 1.01349 0.059705 0.694381 0.158425 0.184124 0.451446 0.783378 0.322255 0.194605 0.356399 0.390904
2.744 0.257223 0.264918 0.874727 0.806472 0.469139 0.963506 0.059328 0.721053 0.154542 0.173028 0.463614 0.771925 0.31517 0.200595 0.348002 0.38241
2.748 0.260491 0.279296 0.864477 0.815253 0.482305 0.91664 0.060276 0.744902 0.151695 0.161747 0.47257 0.755257 0.309359 0.206435 0.344543 0.377401
2.752 0.264041 0.291057 0.848019 0.819399 0.498175 0.872855 0.062606 0.765433 0.1499 0.150396 0.478222 0.733477 0.304613 0.211832 0.345845 0.375118
2.756 0.267968 0.300162 0.825861 0.818178 0.516509 0.83159 0.066353 0.782527 0.149102 0.13905 0.480637 0.70677 0.300669 0.216584 0.351461 0.374601
2.76 0.272285 0.306957 0.798731 0.81105 0.53694 0.791977 0.071536 0.796534 0.149299 0.127775 0.479926 0.675442 0.297226 0.220574 0.361068 0.374979
2.764 0.276904 0.311801 0.767059 0.797499 0.558679 0.753571 0.078144 0.807657 0.150535 0.116718 0.475991 0.639951 0.294008 0.223633 0.374507 0.375691
2.768 0.281516 0.315041 0.731003 0.776918 0.580699 0.71645 0.086119 0.815622 0.152859 0.106096 0.468682 0.600911 0.290763 0.225603 0.391755 0.376596
2.772 0.285807 0.316941 0.690754 0.749322 0.602165 0.680777 0.095359 0.819948 0.156315 0.096122 0.458047 0.559326 0.287316 0.226302 0.412757 0.377993
2.776 0.289589 0.317837 0.64681 0.715162 0.622013 0.646743 0.105716 0.820301 0.160876 0.086949 0.444464 0.516147 0.283544 0.225596 0.437106 0.380203
2.78 0.292802 0.318003 0.599625 0.674889 0.639108 0.614616 0.116988 0.816138 0.166447 0.078683 0.42896 0.472167 0.279276 0.223374 0.464083 0.383301
2.784 0.295576 0.317879 0.549907 0.629235 0.652836 0.584506 0.128972 0.806899 0.172834 0.071391 0.412816 0.428064 0.274245 0.219546 0.49263 0.387099
2.788 0.298071 0.318176 0.498859 0.579237 0.662831 0.556382 0.141493 0.792332 0.179763 0.065086 0.397165 0.3845 0.268133 0.214079 0.52134 0.3912
2.792 0.300368 0.31964 0.447509 0.526166 0.669209 0.530343 0.154395 0.772591 0.186939 0.059748 0.383041 0.342119 0.26074 0.206948 0.54852 0.395
2.796 0.302597 0.322781 0.396688 0.471547 0.67216 0.506965 0.167461 0.747895 0.194087 0.055332 0.371238 0.301237 0.252128 0.198239 0.572684 0.397991
2.8 0.304738 0.327814 0.347158 0.416896 0.671509 0.486767 0.18034 0.718406 0.200978 0.051778 0.362226 0.26204 0.242406 0.18814 0.592805 0.399878
2.804 0.306656 0.3347 0.299901 0.363517 0.666934 0.470038 0.192616 0.684307 0.207282 0.048988 0.356189 0.224886 0.231784 0.176906 0.608415 0.400746
2.808 0.308385 0.343271 0.255764 0.312554 0.657987 0.456718 0.20387 0.645789 0.212713 0.046826 0.353092 0.190295 0.220603 0.164776 0.619149 0.400684
2.812 0.309878 0.353315 0.215294 0.264976 0.644318 0.44648 0.213628 0.603367 0.217101 0.045164 0.352679 0.158714 0.209143 0.151949 0.624338 0.399677
2.816 0.310959 0.364561 0.178793 0.221461 0.62615 0.438757 0.221655 0.558099 0.220334 0.043923 0.354522 0.130414 0.197652 0.138633 0.623671 0.397671
2.82 0.311341 0.376489 0.146336 0.182393 0.604262 0.432922 0.227859 0.51122 0.222273 0.043045 0.357977 0.1055 0.186285 0.125107 0.617121 0.394619
2.824 0.310833 0.388397 0.117851 0.147918 0.579632 0.428565 0.232304 0.464073 0.222689 0.042474 0.362338 0.083949 0.175166 0.111747 0.604932 0.390641
2.828 0.30942 0.399675 0.09316 0.117995 0.553355 0.425378 0.235069 0.418015 0.221357 0.042135 0.366949 0.065627 0.164428 0.098901 0.587663 0.385888
2.832 0.307231 0.409935 0.071993 0.092453 0.526368 0.42287 0.236108 0.374051 0.218134 0.041934 0.371183 0.050324 0.154199 0.08684 0.56603 0.380294
2.836 0.304603 0.419151 0.054078 0.071061 0.499345 0.420554 0.235338 0.332867 0.213097 0.041776 0.37479 0.037785 0.144571 0.075744 0.540995 0.373621
2.84 0.301877 0.427539 0.039188 0.053569 0.472761 0.41803 0.232648 0.29486 0.206389 0.041597 0.377838 0.027732 0.135569 0.065699 0.513485 0.365538
2.844 0.299383 0.435231 0.027068 0.039681 0.447093 0.414757 0.227962 0.26014 0.198313 0.041355 0.380553 0.019864 0.127185 0.056718 0.484229 0.356184
2.848 0.297293 0.442027 0.017429 0.029047 0.422799 0.410378 0.221272 0.228579 0.189196 0.041021 0.383142 0.013859 0.119397 0.048764 0.454096 0.34617
2.852 0.295616 0.447466 0.009979 0.021292 0.400481 0.404713 0.212789 0.199973 0.179445 0.040612 0.385547 0.009384 0.112218 0.04178 0.423806 0.336206
2.856 0.294475 0.451229 0.004438 0.01606 0.38056 0.397669 0.202828 0.174251 0.169596 0.040152 0.38755 0.006119 0.105656 0.035721 0.394005 0.326803
2.86 0.294169 0.45358 0.000548 0.013034 0.36327 0.389518 0.19185 0.151543 0.160171 0.039673 0.38899 0.003799 0.099642 0.030578 0.365303 0.318317
2.864 0.295107 0.455282 0.0 0.011904 0.348899 0.380607 0.180352 0.132126 0.151597 0.039235 0.389649 0.002222 0.094033 0.026356 0.33841 0.311155
