datacolumns 17
datarows 1611
time	addmag_r	bicfemlh_r	gaslat_r	gasmed_r	gmax_r	gmed_r	gra_r	perlong_r	recfem_r	sar_r	semimem_r	sol_r	tfl_r	tibant_r	vaslat_r	vasmed_r
1.87	0.004295	0.00243	0.010698	0.008372	0.00697	0.037351	0.006231	0.036483	0.009708	0.011262	0	0.010539	0.011226	0.191832	0.009567	0.011874
1.8705	0.004266	0.002405	0.010614	0.008322	0.006971	0.037492	0.00624	0.036322	0.00972	0.011233	0	0.010431	0.011118	0.191608	0.009693	0.01194
1.871	0.004237	0.002379	0.010531	0.008274	0.006971	0.037631	0.006248	0.03616	0.009732	0.011202	0	0.010324	0.011011	0.191393	0.00982	0.012004
1.8715	0.00421	0.002354	0.010449	0.008226	0.006972	0.037766	0.006256	0.035997	0.009746	0.01117	0	0.010217	0.010903	0.191187	0.009947	0.012068
1.872	0.004183	0.002329	0.010369	0.008178	0.006973	0.037898	0.006264	0.035834	0.00976	0.011136	0	0.010112	0.010796	0.19099	0.010075	0.01213
1.8725	0.004156	0.002304	0.01029	0.008132	0.006974	0.038028	0.006271	0.03567	0.009775	0.0111	0	0.010007	0.01069	0.1908	0.010204	0.012192
1.873	0.004131	0.00228	0.010212	0.008087	0.006976	0.038153	0.006278	0.035506	0.009791	0.011063	0	0.009902	0.010583	0.190618	0.010333	0.012252
1.8735	0.004106	0.002255	0.010135	0.008042	0.006977	0.038275	0.006284	0.035341	0.009807	0.011024	0	0.009799	0.010478	0.190443	0.010463	0.012311
1.874	0.004082	0.002231	0.01006	0.007998	0.006979	0.038394	0.00629	0.035176	0.009825	0.010983	0	0.009696	0.010372	0.190275	0.010593	0.012369
1.8745	0.004059	0.002206	0.009986	0.007955	0.006981	0.038509	0.006296	0.035011	0.009842	0.010941	0	0.009594	0.010268	0.190113	0.010724	0.012426
1.875	0.004036	0.002183	0.009913	0.007913	0.006983	0.03862	0.006301	0.034845	0.00986	0.010898	0	0.009493	0.010163	0.189956	0.010856	0.012481
1.8755	0.004015	0.002159	0.009841	0.007872	0.006986	0.038727	0.006305	0.034678	0.009879	0.010853	0	0.009393	0.010059	0.189805	0.010988	0.012536
1.876	0.003994	0.002135	0.00977	0.007831	0.006989	0.038831	0.00631	0.034512	0.009898	0.010806	0	0.009293	0.009956	0.18966	0.01112	0.012589
1.8765	0.003974	0.002112	0.0097	0.007791	0.006992	0.038931	0.006313	0.034345	0.009917	0.010758	0	0.009195	0.009853	0.189519	0.011253	0.01264
1.877	0.003955	0.002089	0.009632	0.007753	0.006996	0.039026	0.006317	0.034178	0.009936	0.010709	0	0.009097	0.009751	0.189384	0.011386	0.012691
1.8775	0.003937	0.002067	0.009565	0.007715	0.007	0.039118	0.00632	0.034011	0.009956	0.010658	0	0.009	0.00965	0.189252	0.01152	0.012739
1.878	0.003919	0.002045	0.009498	0.007678	0.007004	0.039207	0.006323	0.033843	0.009975	0.010606	0	0.008904	0.009549	0.189125	0.011653	0.012787
1.8785	0.003903	0.002023	0.009433	0.007641	0.007009	0.039291	0.006325	0.033675	0.009994	0.010553	0	0.008809	0.009449	0.189002	0.011788	0.012833
1.879	0.003888	0.002001	0.009369	0.007606	0.007014	0.039371	0.006327	0.033507	0.010014	0.010499	0	0.008715	0.00935	0.188881	0.011922	0.012877
1.8795	0.003873	0.00198	0.009306	0.007571	0.007019	0.039447	0.006329	0.033339	0.010033	0.010444	0	0.008622	0.009252	0.188763	0.012056	0.01292
1.88	0.00386	0.00196	0.009245	0.007538	0.007025	0.039519	0.00633	0.03317	0.010052	0.010387	0	0.00853	0.009154	0.188648	0.012191	0.012961
1.8805	0.003848	0.00194	0.009184	0.007505	0.007031	0.039587	0.006332	0.033001	0.01007	0.010329	0	0.008439	0.009057	0.188533	0.012326	0.013001
1.881	0.003837	0.00192	0.009124	0.007473	0.007038	0.039651	0.006332	0.032831	0.010088	0.010271	0	0.008348	0.008961	0.18842	0.012461	0.013039
1.8815	0.003826	0.001901	0.009065	0.007442	0.007045	0.039711	0.006333	0.032661	0.010105	0.010211	0	0.008259	0.008865	0.188306	0.012596	0.013075
1.882	0.003817	0.001883	0.009008	0.007412	0.007053	0.039767	0.006333	0.032491	0.010122	0.01015	0	0.008171	0.008771	0.188192	0.012731	0.013109
1.8825	0.003809	0.001865	0.008951	0.007382	0.007061	0.039818	0.006333	0.03232	0.010138	0.010089	0	0.008083	0.008677	0.188077	0.012865	0.013141
1.883	0.003802	0.001848	0.008895	0.007353	0.007069	0.039866	0.006333	0.032149	0.010154	0.010026	0	0.007997	0.008585	0.187959	0.013	0.013172
1.8835	0.003797	0.001831	0.00884	0.007325	0.007078	0.039909	0.006332	0.031977	0.010168	0.009963	0	0.007912	0.008493	0.187839	0.013134	0.0132
1.884	0.003792	0.001816	0.008786	0.007298	0.007087	0.039949	0.006332	0.031805	0.010182	0.009899	0	0.007828	0.008403	0.187714	0.013268	0.013226
1.8845	0.003788	0.001801	0.008733	0.007272	0.007097	0.039985	0.006331	0.031632	0.010195	0.009834	0	0.007744	0.008313	0.187586	0.013402	0.01325
1.885	0.003786	0.001786	0.008681	0.007246	0.007107	0.040017	0.00633	0.031459	0.010206	0.009768	0	0.007662	0.008224	0.187452	0.013535	0.013272
1.8855	0.003785	0.001773	0.00863	0.007221	0.007118	0.040045	0.006328	0.031286	0.010217	0.009702	0	0.007581	0.008137	0.187313	0.013668	0.013292
1.886	0.003785	0.001761	0.008579	0.007197	0.007129	0.04007	0.006327	0.031111	0.010226	0.009634	0	0.007501	0.008051	0.187168	0.0138	0.01331
1.8865	0.003786	0.001749	0.00853	0.007174	0.00714	0.040092	0.006325	0.030937	0.010235	0.009566	0	0.007422	0.007965	0.187017	0.013932	0.013326
1.887	0.003789	0.001739	0.008481	0.007151	0.007152	0.04011	0.006323	0.030762	0.010242	0.009498	0	0.007344	0.007881	0.186858	0.014063	0.01334
1.8875	0.003793	0.001729	0.008433	0.007128	0.007165	0.040126	0.006321	0.030587	0.010248	0.009429	0	0.007267	0.007798	0.186692	0.014193	0.013351
1.888	0.003798	0.001721	0.008385	0.007107	0.007178	0.040139	0.006319	0.030411	0.010252	0.009359	0	0.007191	0.007716	0.186518	0.014322	0.013361
1.8885	0.003804	0.001714	0.008338	0.007086	0.007191	0.040148	0.006317	0.030234	0.010255	0.009289	0	0.007116	0.007635	0.186335	0.014451	0.013368
1.889	0.003812	0.001708	0.008292	0.007065	0.007205	0.040156	0.006314	0.030057	0.010257	0.009218	0	0.007042	0.007556	0.186142	0.014578	0.013373
1.8895	0.003821	0.001703	0.008247	0.007045	0.007219	0.040161	0.006312	0.02988	0.010257	0.009146	0	0.006969	0.007478	0.18594	0.014705	0.013377
1.89	0.003831	0.0017	0.008202	0.007026	0.007234	0.040164	0.006309	0.029702	0.010255	0.009075	0	0.006898	0.007401	0.185728	0.01483	0.013378
1.8905	0.003843	0.001697	0.008157	0.007007	0.00725	0.040164	0.006306	0.029524	0.010252	0.009003	0	0.006827	0.007325	0.185505	0.014955	0.013377
1.891	0.003857	0.001697	0.008113	0.006988	0.007265	0.040164	0.006303	0.029346	0.010247	0.00893	0	0.006757	0.00725	0.185271	0.015078	0.013374
1.8915	0.003871	0.001698	0.00807	0.00697	0.007281	0.040161	0.0063	0.029167	0.010241	0.008857	0	0.006688	0.007176	0.185024	0.015199	0.013369
1.892	0.003887	0.0017	0.008027	0.006952	0.007298	0.040157	0.006297	0.028988	0.010233	0.008784	0	0.00662	0.007104	0.184766	0.01532	0.013361
1.8925	0.003905	0.001704	0.007985	0.006935	0.007315	0.040152	0.006294	0.028808	0.010223	0.00871	0	0.006553	0.007033	0.184495	0.015439	0.013352
1.893	0.003924	0.001709	0.007943	0.006918	0.007333	0.040146	0.00629	0.028628	0.010211	0.008637	0	0.006487	0.006963	0.18421	0.015556	0.013341
1.8935	0.003945	0.001716	0.007902	0.006901	0.007351	0.040139	0.006286	0.028448	0.010197	0.008563	0	0.006422	0.006895	0.183911	0.015671	0.013328
1.894	0.003967	0.001725	0.007861	0.006885	0.00737	0.040131	0.006282	0.028267	0.010182	0.008489	0	0.006358	0.006828	0.183597	0.015785	0.013312
1.8945	0.003991	0.001736	0.007821	0.006869	0.007389	0.040123	0.006278	0.028086	0.010164	0.008415	0	0.006295	0.006761	0.183268	0.015897	0.013295
1.895	0.004016	0.001748	0.007781	0.006853	0.007408	0.040114	0.006274	0.027905	0.010145	0.008341	0	0.006233	0.006697	0.182923	0.016007	0.013276
1.8955	0.004044	0.001762	0.007741	0.006837	0.007428	0.040104	0.00627	0.027723	0.010124	0.008266	0	0.006172	0.006633	0.182561	0.016115	0.013255
1.896	0.004072	0.001779	0.007701	0.006822	0.007449	0.040095	0.006266	0.02754	0.010101	0.008192	0	0.006111	0.00657	0.182181	0.01622	0.013231
1.8965	0.004103	0.001797	0.007662	0.006807	0.00747	0.040086	0.006261	0.027357	0.010076	0.008118	0	0.006052	0.006509	0.181783	0.016323	0.013206
1.897	0.004136	0.001817	0.007624	0.006792	0.007491	0.040076	0.006257	0.027174	0.010049	0.008043	0	0.005993	0.006449	0.181366	0.016424	0.013179
1.8975	0.00417	0.00184	0.007585	0.006777	0.007513	0.040068	0.006252	0.02699	0.010021	0.007969	0	0.005936	0.006391	0.180929	0.016523	0.01315
1.898	0.004206	0.001865	0.007547	0.006762	0.007536	0.040059	0.006247	0.026806	0.00999	0.007895	0	0.005879	0.006333	0.180471	0.016619	0.01312
1.8985	0.004244	0.001891	0.007509	0.006747	0.007559	0.040052	0.006242	0.026621	0.009958	0.007821	0	0.005823	0.006277	0.179992	0.016712	0.013087
1.899	0.004284	0.001921	0.007471	0.006733	0.007583	0.040045	0.006237	0.026436	0.009924	0.007747	0	0.005768	0.006222	0.17949	0.016802	0.013053
1.8995	0.004326	0.001952	0.007434	0.006718	0.007607	0.040039	0.006232	0.026249	0.009888	0.007673	0	0.005713	0.006168	0.178964	0.016889	0.013016
1.9	0.004369	0.001986	0.007397	0.006703	0.007632	0.040034	0.006227	0.026062	0.00985	0.007599	0	0.00566	0.006116	0.178415	0.016973	0.012978
1.9005	0.004415	0.002023	0.007359	0.006689	0.007657	0.040031	0.006221	0.025875	0.00981	0.007526	0	0.005607	0.006064	0.177841	0.017054	0.012939
1.901	0.004464	0.002062	0.007322	0.006674	0.007683	0.040028	0.006216	0.025686	0.009769	0.007453	0	0.005555	0.006014	0.177242	0.017131	0.012897
1.9015	0.004514	0.002103	0.007285	0.006659	0.00771	0.040027	0.006211	0.025497	0.009726	0.00738	0	0.005504	0.005965	0.176618	0.017206	0.012854
1.902	0.004567	0.002148	0.007249	0.006644	0.007737	0.040028	0.006205	0.025307	0.009682	0.007307	0	0.005454	0.005917	0.175967	0.017276	0.012809
1.9025	0.004622	0.002195	0.007212	0.006629	0.007765	0.040031	0.0062	0.025117	0.009636	0.007235	0	0.005405	0.005871	0.17529	0.017343	0.012762
1.903	0.004679	0.002245	0.007175	0.006614	0.007793	0.040035	0.006194	0.024925	0.009588	0.007163	0	0.005356	0.005825	0.174586	0.017406	0.012714
1.9035	0.004739	0.002298	0.007139	0.006599	0.007822	0.040041	0.006189	0.024733	0.009539	0.007091	0	0.005309	0.005781	0.173855	0.017465	0.012664
1.904	0.004802	0.002353	0.007103	0.006583	0.007852	0.04005	0.006184	0.024539	0.009489	0.00702	0	0.005262	0.005738	0.173096	0.017519	0.012612
1.9045	0.004867	0.002412	0.007067	0.006568	0.007882	0.04006	0.006178	0.024345	0.009437	0.006949	0	0.005215	0.005696	0.172309	0.01757	0.012559
1.905	0.004935	0.002474	0.007031	0.006552	0.007913	0.040074	0.006173	0.02415	0.009384	0.006878	0	0.00517	0.005655	0.171494	0.017616	0.012504
1.9055	0.005005	0.00254	0.006995	0.006536	0.007944	0.040089	0.006168	0.023955	0.009329	0.006808	0	0.005125	0.005615	0.170651	0.017658	0.012447
1.906	0.005078	0.002608	0.006959	0.00652	0.007976	0.040107	0.006163	0.023758	0.009274	0.006738	0	0.005082	0.005576	0.169781	0.017695	0.012389
1.9065	0.005154	0.00268	0.006924	0.006504	0.008009	0.040128	0.006158	0.023561	0.009217	0.006669	0	0.005039	0.005538	0.168885	0.017727	0.01233
1.907	0.005233	0.002755	0.006889	0.006488	0.008042	0.040152	0.006153	0.023363	0.009159	0.0066	0	0.004996	0.005501	0.167961	0.017754	0.012269
1.9075	0.005315	0.002834	0.006854	0.006471	0.008075	0.040179	0.006148	0.023164	0.0091	0.006532	0	0.004955	0.005465	0.167013	0.017776	0.012207
1.908	0.005401	0.002916	0.006819	0.006454	0.00811	0.040208	0.006144	0.022965	0.00904	0.006464	0	0.004914	0.00543	0.166039	0.017792	0.012143
1.9085	0.005489	0.003002	0.006784	0.006437	0.008145	0.040241	0.006139	0.022766	0.008979	0.006396	0	0.004874	0.005396	0.16504	0.017804	0.012078
1.909	0.00558	0.003091	0.006749	0.006419	0.00818	0.040277	0.006135	0.022566	0.008917	0.006329	0	0.004835	0.005364	0.164018	0.01781	0.012012
1.9095	0.005675	0.003185	0.006715	0.006402	0.008216	0.040316	0.006131	0.022366	0.008854	0.006263	0	0.004796	0.005332	0.162973	0.01781	0.011945
1.91	0.005773	0.003282	0.006681	0.006384	0.008252	0.040358	0.006127	0.022165	0.00879	0.006197	0	0.004758	0.005301	0.161905	0.017805	0.011876
1.9105	0.005874	0.003383	0.006647	0.006365	0.008289	0.040404	0.006123	0.021965	0.008725	0.006131	0	0.004721	0.005271	0.160816	0.017794	0.011806
1.911	0.005978	0.003488	0.006614	0.006347	0.008327	0.040453	0.006119	0.021764	0.00866	0.006066	0	0.004684	0.005241	0.159706	0.017777	0.011735
1.9115	0.006087	0.003597	0.00658	0.006328	0.008365	0.040505	0.006116	0.021564	0.008593	0.006002	0	0.004648	0.005213	0.158577	0.017755	0.011663
1.912	0.006198	0.00371	0.006547	0.006309	0.008404	0.040561	0.006113	0.021363	0.008526	0.005938	0	0.004613	0.005186	0.157429	0.017727	0.01159
1.9125	0.006314	0.003828	0.006514	0.006289	0.008443	0.040619	0.00611	0.021163	0.008459	0.005874	0	0.004578	0.00516	0.156264	0.017694	0.011516
1.913	0.006433	0.00395	0.006482	0.00627	0.008483	0.040682	0.006107	0.020964	0.00839	0.005811	0	0.004544	0.005134	0.155083	0.017655	0.011441
1.9135	0.006555	0.004076	0.006449	0.00625	0.008523	0.040747	0.006105	0.020764	0.008322	0.005749	0	0.00451	0.00511	0.153886	0.01761	0.011365
1.914	0.006682	0.004206	0.006417	0.006229	0.008564	0.040817	0.006103	0.020566	0.008252	0.005687	0	0.004477	0.005086	0.152675	0.01756	0.011287
1.9145	0.006812	0.004342	0.006386	0.006209	0.008605	0.040889	0.006101	0.020368	0.008182	0.005626	0	0.004445	0.005063	0.15145	0.017504	0.011209
1.915	0.006946	0.004481	0.006354	0.006188	0.008646	0.040965	0.006099	0.02017	0.008112	0.005565	0	0.004413	0.005041	0.150212	0.017443	0.01113
1.9155	0.007084	0.004626	0.006323	0.006166	0.008688	0.041045	0.006097	0.019974	0.008041	0.005505	0	0.004382	0.00502	0.148963	0.017376	0.01105
1.916	0.007226	0.004775	0.006292	0.006145	0.008731	0.041127	0.006096	0.019779	0.00797	0.005445	0	0.004351	0.005	0.147702	0.017304	0.010969
1.9165	0.007373	0.004929	0.006262	0.006123	0.008773	0.041214	0.006095	0.019584	0.007898	0.005386	0	0.004321	0.004981	0.146431	0.017227	0.010887
1.917	0.007523	0.005089	0.006232	0.006101	0.008817	0.041303	0.006095	0.019391	0.007826	0.005328	0	0.004292	0.004963	0.145151	0.017145	0.010805
1.9175	0.007678	0.005253	0.006202	0.006078	0.00886	0.041397	0.006094	0.019199	0.007754	0.00527	0	0.004263	0.004946	0.143862	0.017058	0.010722
1.918	0.007836	0.005422	0.006172	0.006055	0.008904	0.041493	0.006094	0.019008	0.007682	0.005212	0.000263	0.004234	0.004929	0.142565	0.016967	0.010638
1.9185	0.007999	0.005597	0.006143	0.006032	0.008949	0.041593	0.006094	0.018818	0.00761	0.005156	0.000631	0.004206	0.004914	0.141261	0.016871	0.010553
1.919	0.008167	0.005777	0.006114	0.006009	0.008993	0.041697	0.006095	0.01863	0.007537	0.0051	0.001013	0.004178	0.004899	0.139951	0.016771	0.010468
1.9195	0.008339	0.005962	0.006086	0.005985	0.009038	0.041803	0.006096	0.018444	0.007465	0.005044	0.001409	0.004151	0.004885	0.138635	0.016667	0.010383
1.92	0.008515	0.006153	0.006057	0.005962	0.009084	0.041914	0.006097	0.018259	0.007392	0.004989	0.001819	0.004125	0.004872	0.137314	0.016559	0.010296
1.9205	0.008696	0.006349	0.00603	0.005937	0.009129	0.042027	0.006098	0.018075	0.00732	0.004935	0.002243	0.004099	0.00486	0.135989	0.016447	0.010209
1.921	0.008882	0.006551	0.006002	0.005913	0.009176	0.042144	0.0061	0.017893	0.007247	0.004882	0.002682	0.004073	0.004848	0.13466	0.016331	0.010122
1.9215	0.009072	0.006758	0.005975	0.005889	0.009222	0.042263	0.006102	0.017713	0.007175	0.004829	0.003135	0.004048	0.004838	0.133328	0.016212	0.010034
1.922	0.009267	0.006972	0.005948	0.005864	0.009269	0.042386	0.006105	0.017535	0.007103	0.004777	0.003604	0.004024	0.004828	0.131993	0.01609	0.009946
1.9225	0.009467	0.007191	0.005921	0.005839	0.009315	0.042512	0.006108	0.017358	0.007031	0.004725	0.004089	0.004	0.004819	0.130658	0.015965	0.009857
1.923	0.009672	0.007416	0.005895	0.005813	0.009363	0.042641	0.006111	0.017183	0.006959	0.004674	0.004589	0.003976	0.00481	0.129321	0.015837	0.009767
1.9235	0.009881	0.007648	0.005869	0.005788	0.00941	0.042774	0.006115	0.01701	0.006888	0.004624	0.005105	0.003953	0.004803	0.127984	0.015705	0.009678
1.924	0.010096	0.007885	0.005843	0.005762	0.009458	0.042908	0.006119	0.016839	0.006816	0.004574	0.005637	0.00393	0.004796	0.126647	0.015572	0.009588
1.9245	0.010316	0.008128	0.005818	0.005736	0.009506	0.043046	0.006124	0.01667	0.006745	0.004525	0.006186	0.003908	0.00479	0.125312	0.015436	0.009497
1.925	0.010541	0.008378	0.005793	0.00571	0.009554	0.043187	0.006129	0.016504	0.006675	0.004477	0.006752	0.003886	0.004784	0.123978	0.015297	0.009407
1.9255	0.010771	0.008634	0.005769	0.005684	0.009602	0.04333	0.006134	0.016339	0.006605	0.00443	0.007334	0.003865	0.00478	0.122648	0.015156	0.009316
1.926	0.011006	0.008897	0.005745	0.005658	0.009651	0.043476	0.00614	0.016177	0.006535	0.004383	0.007934	0.003844	0.004776	0.12132	0.015014	0.009224
1.9265	0.011247	0.009166	0.005721	0.005632	0.009699	0.043624	0.006146	0.016016	0.006466	0.004337	0.008552	0.003824	0.004773	0.119997	0.014869	0.009133
1.927	0.011493	0.009441	0.005697	0.005605	0.009748	0.043775	0.006153	0.015859	0.006397	0.004292	0.009187	0.003804	0.00477	0.118678	0.014723	0.009041
1.9275	0.011744	0.009723	0.005674	0.005579	0.009797	0.043929	0.00616	0.015703	0.006328	0.004247	0.009841	0.003784	0.004768	0.117365	0.014576	0.00895
1.928	0.012001	0.010011	0.005651	0.005552	0.009846	0.044085	0.006168	0.01555	0.00626	0.004203	0.010513	0.003765	0.004767	0.116058	0.014427	0.008858
1.9285	0.012264	0.010306	0.005629	0.005526	0.009895	0.044243	0.006176	0.015399	0.006192	0.00416	0.011203	0.003746	0.004767	0.114757	0.014277	0.008766
1.929	0.012532	0.010608	0.005607	0.005499	0.009944	0.044403	0.006184	0.015251	0.006125	0.004118	0.011912	0.003728	0.004767	0.113465	0.014126	0.008674
1.9295	0.012806	0.010917	0.005586	0.005472	0.009994	0.044566	0.006193	0.015105	0.006059	0.004077	0.012641	0.00371	0.004768	0.11218	0.013974	0.008583
1.93	0.013085	0.011233	0.005564	0.005446	0.010043	0.044731	0.006203	0.014961	0.005993	0.004036	0.013389	0.003692	0.00477	0.110904	0.013821	0.008491
1.9305	0.013371	0.011555	0.005544	0.005419	0.010092	0.044898	0.006212	0.01482	0.005927	0.003996	0.014156	0.003675	0.004772	0.109637	0.013668	0.008399
1.931	0.013662	0.011884	0.005523	0.005393	0.010142	0.045068	0.006223	0.014682	0.005862	0.003957	0.014944	0.003659	0.004775	0.10838	0.013514	0.008308
1.9315	0.013959	0.012221	0.005503	0.005366	0.010191	0.045239	0.006233	0.014546	0.005798	0.003919	0.015752	0.003643	0.004779	0.107133	0.01336	0.008216
1.932	0.014262	0.012564	0.005484	0.00534	0.010241	0.045412	0.006245	0.014413	0.005734	0.003881	0.01658	0.003627	0.004783	0.105897	0.013205	0.008125
1.9325	0.014571	0.012914	0.005464	0.005314	0.01029	0.045588	0.006256	0.014282	0.005671	0.003844	0.017428	0.003611	0.004788	0.104673	0.013051	0.008034
1.933	0.014887	0.013272	0.005445	0.005288	0.01034	0.045765	0.006268	0.014153	0.005609	0.003808	0.018298	0.003596	0.004794	0.10346	0.012896	0.007943
1.9335	0.015208	0.013636	0.005427	0.005262	0.010389	0.045944	0.006281	0.014028	0.005547	0.003773	0.019188	0.003582	0.0048	0.102259	0.012742	0.007853
1.934	0.015536	0.014008	0.005409	0.005236	0.010439	0.046125	0.006294	0.013904	0.005486	0.003739	0.0201	0.003567	0.004807	0.101071	0.012588	0.007762
1.9345	0.015869	0.014387	0.005391	0.00521	0.010488	0.046308	0.006307	0.013783	0.005426	0.003706	0.021034	0.003553	0.004815	0.099896	0.012434	0.007672
1.935	0.016209	0.014773	0.005373	0.005185	0.010537	0.046493	0.006321	0.013665	0.005366	0.003673	0.021989	0.00354	0.004823	0.098734	0.012281	0.007582
1.9355	0.016556	0.015166	0.005356	0.00516	0.010586	0.04668	0.006335	0.013549	0.005308	0.003641	0.022966	0.003526	0.004832	0.097586	0.012128	0.007493
1.936	0.016908	0.015566	0.005339	0.005135	0.010635	0.046869	0.00635	0.013436	0.00525	0.003611	0.023966	0.003513	0.004842	0.096452	0.011977	0.007404
1.9365	0.017268	0.015974	0.005323	0.00511	0.010684	0.047059	0.006365	0.013325	0.005192	0.00358	0.024987	0.003501	0.004852	0.095331	0.011826	0.007315
1.937	0.017633	0.016388	0.005307	0.005086	0.010733	0.047252	0.00638	0.013216	0.005136	0.003551	0.026032	0.003488	0.004864	0.094226	0.011676	0.007226
1.9375	0.018005	0.01681	0.005291	0.005061	0.010781	0.047446	0.006396	0.01311	0.00508	0.003523	0.027099	0.003476	0.004875	0.093134	0.011526	0.007138
1.938	0.018384	0.017239	0.005276	0.005038	0.010829	0.047642	0.006413	0.013006	0.005025	0.003495	0.028189	0.003465	0.004888	0.092058	0.011379	0.00705
1.9385	0.018769	0.017676	0.005261	0.005014	0.010876	0.047839	0.006429	0.012905	0.004971	0.003469	0.029302	0.003453	0.004901	0.090997	0.011232	0.006963
1.939	0.019161	0.018119	0.005246	0.004991	0.010923	0.048039	0.006446	0.012806	0.004918	0.003443	0.030438	0.003442	0.004915	0.089951	0.011086	0.006876
1.9395	0.019559	0.01857	0.005231	0.004968	0.01097	0.048239	0.006464	0.012709	0.004866	0.003418	0.031598	0.003431	0.00493	0.08892	0.010942	0.00679
1.94	0.019964	0.019028	0.005217	0.004945	0.011016	0.048442	0.006482	0.012615	0.004815	0.003394	0.032782	0.00342	0.004946	0.087904	0.0108	0.006704
1.9405	0.020375	0.019493	0.005203	0.004923	0.011062	0.048646	0.0065	0.012522	0.004764	0.00337	0.033989	0.003409	0.004962	0.086905	0.010659	0.006618
1.941	0.020794	0.019965	0.005189	0.004901	0.011107	0.048851	0.006518	0.012432	0.004715	0.003348	0.03522	0.003399	0.00498	0.08592	0.010519	0.006534
1.9415	0.021218	0.020444	0.005176	0.004879	0.011151	0.049058	0.006537	0.012344	0.004666	0.003326	0.036475	0.003389	0.004998	0.084952	0.010381	0.00645
1.942	0.02165	0.02093	0.005163	0.004858	0.011195	0.049266	0.006557	0.012258	0.004619	0.003305	0.037754	0.003379	0.005017	0.083999	0.010246	0.006366
1.9425	0.022088	0.021423	0.00515	0.004837	0.011238	0.049476	0.006576	0.012175	0.004572	0.003285	0.039057	0.003369	0.005037	0.083062	0.010111	0.006283
1.943	0.022532	0.021923	0.005138	0.004816	0.01128	0.049687	0.006597	0.012093	0.004527	0.003266	0.040384	0.00336	0.005058	0.08214	0.009979	0.006201
1.9435	0.022983	0.02243	0.005125	0.004796	0.011321	0.049898	0.006617	0.012013	0.004482	0.003248	0.041736	0.003351	0.00508	0.081234	0.009849	0.006119
1.944	0.023441	0.022943	0.005113	0.004776	0.011362	0.050112	0.006638	0.011936	0.004439	0.00323	0.043113	0.003341	0.005102	0.080344	0.009721	0.006038
1.9445	0.023905	0.023463	0.005102	0.004756	0.011401	0.050326	0.006659	0.01186	0.004397	0.003213	0.044513	0.003332	0.005126	0.07947	0.009595	0.005958
1.945	0.024376	0.02399	0.00509	0.004737	0.01144	0.050541	0.00668	0.011786	0.004355	0.003197	0.045939	0.003324	0.005151	0.078611	0.009471	0.005879
1.9455	0.024853	0.024523	0.005079	0.004718	0.011477	0.050758	0.006702	0.011714	0.004315	0.003182	0.047389	0.003315	0.005176	0.077768	0.00935	0.0058
1.946	0.025337	0.025063	0.005068	0.0047	0.011514	0.050975	0.006725	0.011644	0.004276	0.003167	0.048863	0.003306	0.005203	0.07694	0.00923	0.005722
1.9465	0.025827	0.025609	0.005057	0.004682	0.011549	0.051194	0.006747	0.011576	0.004238	0.003154	0.050363	0.003298	0.005231	0.076127	0.009113	0.005645
1.947	0.026324	0.026161	0.005047	0.004664	0.011584	0.051414	0.00677	0.011509	0.004202	0.003141	0.051887	0.003289	0.00526	0.075331	0.008998	0.005569
1.9475	0.026826	0.026719	0.005036	0.004647	0.011617	0.051636	0.006794	0.011445	0.004166	0.003128	0.053436	0.003281	0.00529	0.074549	0.008886	0.005494
1.948	0.027335	0.027284	0.005026	0.00463	0.011649	0.051858	0.006818	0.011382	0.004132	0.003117	0.05501	0.003273	0.005321	0.073783	0.008776	0.00542
1.9485	0.027851	0.027854	0.005016	0.004614	0.01168	0.052082	0.006842	0.01132	0.004099	0.003106	0.056608	0.003265	0.005352	0.073031	0.008669	0.005346
1.949	0.028372	0.028429	0.005007	0.004598	0.01171	0.052306	0.006866	0.011261	0.004066	0.003096	0.058232	0.003257	0.005386	0.072295	0.008564	0.005274
1.9495	0.0289	0.029011	0.004997	0.004582	0.011739	0.052532	0.006891	0.011203	0.004036	0.003087	0.05988	0.003249	0.00542	0.071573	0.008462	0.005203
1.95	0.029434	0.029598	0.004988	0.004566	0.011766	0.052759	0.006917	0.011146	0.004006	0.003078	0.061553	0.003242	0.005455	0.070867	0.008362	0.005132
1.9505	0.029974	0.03019	0.004978	0.004551	0.011793	0.052987	0.006943	0.011091	0.003977	0.00307	0.06325	0.003234	0.005491	0.070175	0.008266	0.005063
1.951	0.030519	0.030787	0.004969	0.004536	0.011818	0.053215	0.006969	0.011037	0.00395	0.003062	0.064973	0.003227	0.005528	0.069497	0.008171	0.004994
1.9515	0.031071	0.031389	0.00496	0.004522	0.011842	0.053445	0.006996	0.010985	0.003924	0.003056	0.06672	0.003219	0.005567	0.068834	0.00808	0.004927
1.952	0.031628	0.031996	0.004951	0.004508	0.011865	0.053675	0.007023	0.010934	0.003899	0.003049	0.068491	0.003212	0.005606	0.068185	0.007991	0.004861
1.9525	0.032191	0.032607	0.004942	0.004494	0.011886	0.053906	0.00705	0.010884	0.003875	0.003044	0.070288	0.003205	0.005646	0.06755	0.007905	0.004795
1.953	0.03276	0.033223	0.004933	0.004481	0.011906	0.054137	0.007078	0.010836	0.003853	0.003039	0.072109	0.003197	0.005688	0.066929	0.007821	0.004731
1.9535	0.033334	0.033842	0.004925	0.004468	0.011925	0.054369	0.007107	0.010789	0.003831	0.003034	0.073954	0.00319	0.005731	0.066322	0.007741	0.004668
1.954	0.033914	0.034466	0.004916	0.004455	0.011942	0.0546	0.007135	0.010743	0.003811	0.00303	0.075824	0.003183	0.005774	0.065728	0.007663	0.004606
1.9545	0.034499	0.035094	0.004907	0.004443	0.011958	0.054832	0.007165	0.010699	0.003792	0.003027	0.077718	0.003176	0.005819	0.065148	0.007588	0.004545
1.955	0.035089	0.035724	0.004898	0.004431	0.011972	0.055064	0.007194	0.010655	0.003775	0.003024	0.079636	0.003169	0.005865	0.064582	0.007516	0.004485
1.9555	0.035685	0.036359	0.004889	0.004419	0.011986	0.055296	0.007225	0.010613	0.003758	0.003022	0.081579	0.003162	0.005911	0.06403	0.007447	0.004426
1.956	0.036286	0.036996	0.00488	0.004407	0.011997	0.055527	0.007255	0.010572	0.003743	0.00302	0.083546	0.003156	0.005959	0.063492	0.007381	0.004368
1.9565	0.036892	0.037636	0.004871	0.004396	0.012008	0.055758	0.007286	0.010532	0.003728	0.003018	0.085536	0.003149	0.006008	0.062968	0.007318	0.004311
1.957	0.037503	0.038278	0.004862	0.004385	0.012016	0.055988	0.007318	0.010493	0.003715	0.003017	0.08755	0.003142	0.006058	0.062459	0.007257	0.004256
1.9575	0.038119	0.038922	0.004853	0.004374	0.012023	0.056217	0.00735	0.010455	0.003704	0.003017	0.089588	0.003135	0.006108	0.061963	0.0072	0.004201
1.958	0.038739	0.039568	0.004843	0.004364	0.012029	0.056444	0.007382	0.010418	0.003693	0.003017	0.091648	0.003129	0.00616	0.061482	0.007145	0.004148
1.9585	0.039365	0.040216	0.004834	0.004354	0.012033	0.05667	0.007415	0.010382	0.003683	0.003017	0.093732	0.003122	0.006212	0.061015	0.007094	0.004095
1.959	0.039994	0.040865	0.004825	0.004344	0.012036	0.056895	0.007449	0.010347	0.003675	0.003018	0.095838	0.003115	0.006266	0.060562	0.007045	0.004044
1.9595	0.040628	0.041515	0.004815	0.004334	0.012037	0.057118	0.007483	0.010313	0.003667	0.003019	0.097967	0.003109	0.00632	0.060125	0.007	0.003994
1.96	0.041267	0.042166	0.004805	0.004325	0.012036	0.057338	0.007517	0.010279	0.003661	0.00302	0.100118	0.003102	0.006375	0.059701	0.006957	0.003945
1.9605	0.041909	0.042817	0.004796	0.004316	0.012033	0.057556	0.007552	0.010247	0.003656	0.003022	0.102291	0.003096	0.006431	0.059293	0.006917	0.003897
1.961	0.042555	0.043467	0.004786	0.004307	0.012029	0.057771	0.007587	0.010215	0.003652	0.003023	0.104485	0.003089	0.006488	0.058899	0.006881	0.00385
1.9615	0.043205	0.044118	0.004777	0.004298	0.012023	0.057983	0.007622	0.010184	0.003649	0.003026	0.106701	0.003083	0.006546	0.058521	0.006847	0.003804
1.962	0.043859	0.044767	0.004767	0.00429	0.012016	0.058191	0.007658	0.010154	0.003647	0.003028	0.108938	0.003077	0.006605	0.058158	0.006816	0.003759
1.9625	0.044516	0.045416	0.004757	0.004282	0.012006	0.058396	0.007695	0.010125	0.003646	0.003031	0.111195	0.00307	0.006664	0.05781	0.006789	0.003715
1.963	0.045177	0.046063	0.004748	0.004274	0.011995	0.058598	0.007732	0.010097	0.003647	0.003034	0.113473	0.003064	0.006724	0.057478	0.006764	0.003672
1.9635	0.04584	0.046708	0.004738	0.004267	0.011982	0.058794	0.007769	0.01007	0.003648	0.003037	0.115771	0.003058	0.006785	0.057162	0.006742	0.003631
1.964	0.046507	0.04735	0.004729	0.00426	0.011967	0.058987	0.007806	0.010043	0.00365	0.00304	0.118089	0.003052	0.006846	0.056862	0.006723	0.00359
1.9645	0.047176	0.04799	0.00472	0.004253	0.01195	0.059174	0.007844	0.010018	0.003654	0.003043	0.120427	0.003046	0.006909	0.056578	0.006708	0.00355
1.965	0.047848	0.048627	0.004711	0.004247	0.011932	0.059356	0.007882	0.009994	0.003658	0.003047	0.122784	0.00304	0.006972	0.056311	0.006695	0.003511
1.9655	0.048523	0.049261	0.004702	0.004241	0.011912	0.059532	0.007921	0.009971	0.003663	0.003051	0.125159	0.003034	0.007035	0.05606	0.006685	0.003473
1.966	0.0492	0.04989	0.004693	0.004235	0.01189	0.059703	0.00796	0.009949	0.00367	0.003055	0.127553	0.003028	0.007099	0.055827	0.006678	0.003437
1.9665	0.049879	0.050515	0.004685	0.00423	0.011866	0.059867	0.007999	0.009928	0.003677	0.003059	0.129966	0.003022	0.007164	0.05561	0.006674	0.003401
1.967	0.050561	0.051135	0.004677	0.004225	0.01184	0.060025	0.008038	0.009908	0.003685	0.003063	0.132396	0.003016	0.00723	0.05541	0.006673	0.003366
1.9675	0.051244	0.05175	0.004669	0.004221	0.011812	0.060176	0.008078	0.009889	0.003695	0.003067	0.134844	0.003011	0.007295	0.055228	0.006675	0.003331
1.968	0.05193	0.052358	0.004661	0.004217	0.011783	0.060319	0.008117	0.009872	0.003705	0.003071	0.137308	0.003005	0.007362	0.055063	0.00668	0.003298
1.9685	0.052619	0.052961	0.004654	0.004213	0.011752	0.060456	0.008157	0.009856	0.003716	0.003075	0.13979	0.003	0.007429	0.054915	0.006688	0.003266
1.969	0.053309	0.053557	0.004647	0.00421	0.01172	0.060585	0.008197	0.009842	0.003728	0.00308	0.142288	0.002995	0.007496	0.054785	0.006698	0.003234
1.9695	0.054001	0.054146	0.00464	0.004208	0.011686	0.060706	0.008238	0.009829	0.003741	0.003085	0.144802	0.002989	0.007564	0.054673	0.006712	0.003203
1.97	0.054696	0.054728	0.004634	0.004206	0.011651	0.06082	0.008278	0.009817	0.003755	0.003089	0.147332	0.002984	0.007632	0.054579	0.006728	0.003174
1.9705	0.055392	0.055302	0.004628	0.004204	0.011614	0.060926	0.008318	0.009807	0.00377	0.003094	0.149878	0.00298	0.0077	0.054502	0.006747	0.003144
1.971	0.056091	0.055868	0.004622	0.004203	0.011575	0.061023	0.008359	0.009798	0.003785	0.003099	0.152438	0.002975	0.007769	0.054444	0.006769	0.003116
1.9715	0.056792	0.056426	0.004617	0.004203	0.011536	0.061113	0.0084	0.00979	0.003802	0.003104	0.155013	0.00297	0.007838	0.054403	0.006793	0.003088
1.972	0.057495	0.056975	0.004613	0.004203	0.011495	0.061194	0.008441	0.009784	0.003819	0.003109	0.157604	0.002966	0.007907	0.05438	0.006821	0.003062
1.9725	0.0582	0.057516	0.004608	0.004203	0.011453	0.061267	0.008482	0.00978	0.003837	0.003114	0.160208	0.002962	0.007977	0.054375	0.006851	0.003035
1.973	0.058908	0.058047	0.004605	0.004204	0.01141	0.061332	0.008523	0.009777	0.003856	0.003119	0.162827	0.002958	0.008047	0.054389	0.006884	0.00301
1.9735	0.059618	0.058569	0.004601	0.004206	0.011365	0.061388	0.008565	0.009775	0.003875	0.003124	0.165459	0.002954	0.008116	0.05442	0.006919	0.002985
1.974	0.060331	0.059082	0.004599	0.004209	0.01132	0.061436	0.008606	0.009775	0.003895	0.00313	0.168106	0.002951	0.008187	0.054469	0.006957	0.002961
1.9745	0.061046	0.059585	0.004596	0.004211	0.011274	0.061475	0.008648	0.009777	0.003916	0.003135	0.170765	0.002948	0.008257	0.054536	0.006998	0.002938
1.975	0.061765	0.060079	0.004595	0.004215	0.011227	0.061506	0.008689	0.00978	0.003938	0.003141	0.173438	0.002945	0.008327	0.054621	0.007042	0.002915
1.9755	0.062486	0.060563	0.004593	0.004219	0.011179	0.061528	0.008731	0.009784	0.003961	0.003147	0.176124	0.002943	0.008397	0.054724	0.007088	0.002892
1.976	0.06321	0.061037	0.004593	0.004224	0.01113	0.061543	0.008774	0.00979	0.003984	0.003153	0.178822	0.00294	0.008468	0.054845	0.007137	0.00287
1.9765	0.063937	0.061501	0.004593	0.004229	0.01108	0.06155	0.008816	0.009798	0.004007	0.003159	0.181532	0.002939	0.008538	0.054983	0.007188	0.002849
1.977	0.064667	0.061956	0.004593	0.004235	0.01103	0.061549	0.008859	0.009807	0.004032	0.003165	0.184255	0.002937	0.008608	0.055139	0.007242	0.002829
1.9775	0.065399	0.062401	0.004594	0.004242	0.01098	0.06154	0.008902	0.009818	0.004057	0.003172	0.186989	0.002936	0.008678	0.055313	0.007299	0.002808
1.978	0.066135	0.062837	0.004596	0.004249	0.010929	0.061524	0.008945	0.00983	0.004082	0.003178	0.189734	0.002935	0.008748	0.055504	0.007358	0.002789
1.9785	0.066874	0.063263	0.004598	0.004257	0.010877	0.061501	0.008988	0.009844	0.004109	0.003185	0.192491	0.002934	0.008818	0.055713	0.00742	0.002769
1.979	0.067616	0.06368	0.004601	0.004266	0.010825	0.06147	0.009032	0.009859	0.004135	0.003192	0.195258	0.002934	0.008887	0.055939	0.007484	0.00275
1.9795	0.068361	0.064088	0.004604	0.004275	0.010773	0.061433	0.009076	0.009875	0.004163	0.003199	0.198035	0.002935	0.008956	0.056183	0.007551	0.002732
1.98	0.069108	0.064487	0.004609	0.004285	0.01072	0.061389	0.00912	0.009893	0.00419	0.003207	0.200822	0.002935	0.009025	0.056445	0.00762	0.002714
1.9805	0.069858	0.064876	0.004613	0.004296	0.010668	0.061338	0.009165	0.009913	0.004219	0.003214	0.203619	0.002936	0.009094	0.056724	0.007692	0.002696
1.981	0.070611	0.065256	0.004619	0.004307	0.010615	0.061281	0.00921	0.009934	0.004248	0.003222	0.206424	0.002938	0.009162	0.057021	0.007767	0.002678
1.9815	0.071366	0.065628	0.004625	0.004319	0.010562	0.061218	0.009256	0.009956	0.004277	0.003231	0.209237	0.00294	0.00923	0.057336	0.007844	0.002661
1.982	0.072124	0.06599	0.004632	0.004332	0.010509	0.061148	0.009301	0.00998	0.004307	0.003239	0.212058	0.002942	0.009297	0.057669	0.007923	0.002644
1.9825	0.072884	0.066343	0.00464	0.004345	0.010456	0.061073	0.009347	0.010005	0.004337	0.003248	0.214886	0.002945	0.009364	0.058019	0.008005	0.002627
1.983	0.073646	0.066689	0.004649	0.004359	0.010403	0.060992	0.009394	0.010032	0.004367	0.003257	0.21772	0.002948	0.00943	0.058387	0.00809	0.002611
1.9835	0.07441	0.067025	0.004658	0.004374	0.01035	0.060904	0.009441	0.01006	0.004398	0.003266	0.22056	0.002952	0.009496	0.058774	0.008177	0.002594
1.984	0.075175	0.067355	0.004668	0.004389	0.010297	0.060812	0.009488	0.01009	0.004429	0.003275	0.223405	0.002957	0.009562	0.059179	0.008266	0.002578
1.9845	0.075942	0.067676	0.004679	0.004405	0.010244	0.060713	0.009536	0.01012	0.004461	0.003285	0.226253	0.002962	0.009626	0.059601	0.008359	0.002562
1.985	0.076709	0.067991	0.004691	0.004422	0.010192	0.06061	0.009584	0.010153	0.004493	0.003295	0.229105	0.002967	0.009691	0.060042	0.008453	0.002546
1.9855	0.077478	0.068299	0.004704	0.004439	0.01014	0.060501	0.009632	0.010186	0.004525	0.003306	0.231959	0.002973	0.009754	0.060502	0.008551	0.00253
1.986	0.078247	0.068601	0.004718	0.004457	0.010088	0.060387	0.009681	0.010221	0.004558	0.003317	0.234814	0.00298	0.009817	0.060979	0.00865	0.002514
1.9865	0.079017	0.068897	0.004733	0.004476	0.010037	0.060268	0.00973	0.010257	0.00459	0.003328	0.23767	0.002987	0.00988	0.061475	0.008753	0.002498
1.987	0.079786	0.069187	0.004748	0.004495	0.009986	0.060145	0.00978	0.010295	0.004623	0.003339	0.240525	0.002995	0.009941	0.061989	0.008858	0.002482
1.9875	0.080555	0.069473	0.004765	0.004515	0.009935	0.060017	0.00983	0.010333	0.004656	0.003351	0.243379	0.003004	0.010002	0.062522	0.008966	0.002466
1.988	0.081323	0.069753	0.004782	0.004536	0.009885	0.059884	0.00988	0.010373	0.00469	0.003363	0.246231	0.003013	0.010063	0.063073	0.009076	0.002449
1.9885	0.082091	0.070028	0.004801	0.004558	0.009835	0.059747	0.00993	0.010415	0.004723	0.003375	0.249079	0.003023	0.010122	0.063643	0.00919	0.002433
1.989	0.082857	0.0703	0.004821	0.00458	0.009786	0.059605	0.009981	0.010458	0.004757	0.003388	0.251922	0.003033	0.010182	0.064231	0.009306	0.002417
1.9895	0.083622	0.070567	0.004841	0.004603	0.009738	0.05946	0.010032	0.010502	0.00479	0.003401	0.254761	0.003044	0.01024	0.064838	0.009425	0.0024
1.99	0.084384	0.070831	0.004863	0.004626	0.00969	0.05931	0.010084	0.010547	0.004824	0.003415	0.257592	0.003056	0.010298	0.065464	0.009547	0.002383
1.9905	0.085145	0.071091	0.004886	0.00465	0.009643	0.059157	0.010136	0.010593	0.004857	0.003429	0.260416	0.003068	0.010355	0.066109	0.009672	0.002366
1.991	0.085903	0.071348	0.00491	0.004675	0.009597	0.058999	0.010188	0.010641	0.004891	0.003443	0.26323	0.003082	0.010412	0.066773	0.0098	0.002349
1.9915	0.086658	0.071603	0.004935	0.004701	0.009552	0.058838	0.01024	0.010691	0.004925	0.003457	0.266034	0.003096	0.010469	0.067455	0.00993	0.002331
1.992	0.08741	0.071855	0.004961	0.004727	0.009507	0.058674	0.010293	0.010742	0.004959	0.003472	0.268827	0.00311	0.010524	0.068157	0.010064	0.002314
1.9925	0.088159	0.072106	0.004988	0.004753	0.009463	0.058506	0.010346	0.010794	0.004992	0.003487	0.271607	0.003126	0.01058	0.068878	0.010201	0.002296
1.993	0.088904	0.072354	0.005016	0.004781	0.009421	0.058334	0.010399	0.010847	0.005026	0.003503	0.274372	0.003142	0.010634	0.069618	0.010341	0.002277
1.9935	0.089645	0.072601	0.005046	0.004809	0.009379	0.05816	0.010453	0.010902	0.005059	0.003519	0.277121	0.003159	0.010689	0.070377	0.010484	0.002259
1.994	0.090381	0.072847	0.005076	0.004838	0.009338	0.057983	0.010507	0.010959	0.005092	0.003535	0.279853	0.003176	0.010742	0.071156	0.01063	0.00224
1.9945	0.091113	0.073091	0.005108	0.004867	0.009299	0.057802	0.010561	0.011017	0.005125	0.003551	0.282566	0.003195	0.010796	0.071953	0.01078	0.002221
1.995	0.09184	0.073335	0.005141	0.004897	0.00926	0.057619	0.010615	0.011077	0.005158	0.003568	0.285259	0.003214	0.010849	0.07277	0.010932	0.002201
1.9955	0.092563	0.073579	0.005175	0.004928	0.009223	0.057434	0.010669	0.011138	0.00519	0.003585	0.287929	0.003234	0.010901	0.073606	0.011088	0.002181
1.996	0.09328	0.073822	0.00521	0.004959	0.009186	0.057247	0.010724	0.011201	0.005222	0.003603	0.290574	0.003255	0.010953	0.074461	0.011247	0.002161
1.9965	0.093991	0.074064	0.005247	0.004991	0.009151	0.057057	0.010779	0.011265	0.005254	0.003621	0.293194	0.003277	0.011005	0.075336	0.01141	0.00214
1.997	0.094697	0.074307	0.005284	0.005024	0.009118	0.056865	0.010834	0.011332	0.005286	0.003639	0.295785	0.003299	0.011056	0.07623	0.011575	0.002119
1.9975	0.095397	0.07455	0.005323	0.005057	0.009085	0.056672	0.010889	0.0114	0.005317	0.003657	0.298346	0.003322	0.011107	0.077143	0.011744	0.002097
1.998	0.096091	0.074794	0.005363	0.005091	0.009054	0.056477	0.010944	0.011469	0.005348	0.003676	0.300876	0.003346	0.011158	0.078076	0.011916	0.002075
1.9985	0.096778	0.075038	0.005404	0.005125	0.009025	0.05628	0.011	0.011541	0.005378	0.003695	0.303371	0.003371	0.011208	0.079028	0.012092	0.002053
1.999	0.097459	0.075282	0.005446	0.00516	0.008997	0.056082	0.011055	0.011614	0.005408	0.003715	0.305831	0.003397	0.011258	0.079999	0.012271	0.00203
1.9995	0.098133	0.075528	0.00549	0.005196	0.00897	0.055883	0.011111	0.011689	0.005437	0.003734	0.308254	0.003423	0.011308	0.08099	0.012453	0.002007
2	0.098801	0.075775	0.005534	0.005232	0.008945	0.055683	0.011167	0.011765	0.005466	0.003754	0.310637	0.003451	0.011358	0.082	0.012638	0.001983
2.0005	0.099462	0.076022	0.00558	0.005269	0.008922	0.055483	0.011222	0.011844	0.005494	0.003775	0.31298	0.003479	0.011407	0.083029	0.012827	0.001959
2.001	0.100117	0.076272	0.005627	0.005307	0.0089	0.055282	0.011278	0.011924	0.005522	0.003795	0.315281	0.003508	0.011456	0.084077	0.013019	0.001934
2.0015	0.100765	0.076522	0.005675	0.005344	0.008881	0.05508	0.011334	0.012006	0.005549	0.003816	0.317539	0.003538	0.011504	0.085144	0.013214	0.001909
2.002	0.101406	0.076774	0.005724	0.005383	0.008863	0.054879	0.011391	0.01209	0.005575	0.003837	0.319752	0.003568	0.011553	0.086231	0.013413	0.001884
2.0025	0.10204	0.077028	0.005775	0.005422	0.008846	0.054678	0.011447	0.012175	0.005601	0.003858	0.321918	0.003599	0.011601	0.087337	0.013614	0.001858
2.003	0.102668	0.077284	0.005826	0.005461	0.008832	0.054477	0.011503	0.012263	0.005626	0.00388	0.324037	0.003631	0.011649	0.088462	0.01382	0.001832
2.0035	0.103289	0.077542	0.005879	0.005501	0.00882	0.054276	0.01156	0.012352	0.00565	0.003902	0.326107	0.003664	0.011696	0.089607	0.014028	0.001805
2.004	0.103903	0.077801	0.005933	0.005542	0.008809	0.054077	0.011616	0.012443	0.005674	0.003924	0.328128	0.003698	0.011744	0.090771	0.01424	0.001778
2.0045	0.10451	0.078063	0.005988	0.005583	0.008801	0.053878	0.011673	0.012535	0.005696	0.003946	0.330098	0.003733	0.011791	0.091954	0.014455	0.00175
2.005	0.10511	0.078328	0.006044	0.005624	0.008795	0.053681	0.01173	0.01263	0.005718	0.003968	0.332017	0.003768	0.011838	0.093157	0.014673	0.001722
2.0055	0.105704	0.078594	0.006101	0.005666	0.008791	0.053485	0.011787	0.012726	0.005739	0.003991	0.333883	0.003804	0.011885	0.094379	0.014894	0.001694
2.006	0.106291	0.078863	0.006159	0.005708	0.008789	0.05329	0.011844	0.012824	0.005759	0.004014	0.335696	0.003841	0.011932	0.095619	0.015119	0.001665
2.0065	0.106871	0.079135	0.006219	0.005751	0.008789	0.053097	0.011901	0.012924	0.005778	0.004037	0.337454	0.003878	0.011979	0.096879	0.015347	0.001636
2.007	0.107445	0.07941	0.006279	0.005794	0.008791	0.052906	0.011958	0.013026	0.005797	0.00406	0.339157	0.003917	0.012026	0.098158	0.015578	0.001606
2.0075	0.108012	0.079686	0.006341	0.005838	0.008796	0.052717	0.012016	0.01313	0.005814	0.004083	0.340803	0.003956	0.012072	0.099455	0.015812	0.001576
2.008	0.108572	0.079966	0.006404	0.005882	0.008803	0.052529	0.012074	0.013235	0.00583	0.004107	0.342392	0.003996	0.012119	0.100771	0.01605	0.001546
2.0085	0.109125	0.080248	0.006468	0.005926	0.008812	0.052345	0.012132	0.013342	0.005845	0.00413	0.343923	0.004037	0.012165	0.102106	0.01629	0.001516
2.009	0.109672	0.080533	0.006533	0.005971	0.008824	0.052162	0.01219	0.013451	0.00586	0.004154	0.345395	0.004078	0.012212	0.10346	0.016534	0.001485
2.0095	0.110211	0.080821	0.006599	0.006016	0.008839	0.051983	0.012249	0.013562	0.005873	0.004178	0.346807	0.00412	0.012258	0.104832	0.016782	0.001454
2.01	0.110743	0.081112	0.006666	0.006061	0.008855	0.051805	0.012307	0.013674	0.005885	0.004202	0.348157	0.004163	0.012305	0.106222	0.017032	0.001423
2.0105	0.111268	0.081405	0.006734	0.006107	0.008875	0.051631	0.012366	0.013788	0.005896	0.004226	0.349446	0.004207	0.012352	0.107632	0.017286	0.001391
2.011	0.111785	0.081701	0.006803	0.006153	0.008897	0.05146	0.012426	0.013904	0.005906	0.00425	0.350672	0.004251	0.012398	0.10906	0.017543	0.00136
2.0115	0.112294	0.082	0.006873	0.006199	0.008921	0.051291	0.012486	0.014021	0.005914	0.004274	0.351835	0.004296	0.012445	0.110507	0.017803	0.001328
2.012	0.112795	0.082301	0.006945	0.006245	0.008949	0.051126	0.012546	0.01414	0.005922	0.004299	0.352932	0.004342	0.012492	0.111973	0.018066	0.001296
2.0125	0.113288	0.082604	0.007017	0.006292	0.008979	0.050964	0.012606	0.014261	0.005928	0.004323	0.353965	0.004388	0.012539	0.113458	0.018332	0.001264
2.013	0.113773	0.08291	0.00709	0.006339	0.009012	0.050806	0.012667	0.014383	0.005933	0.004347	0.354931	0.004436	0.012585	0.114962	0.018601	0.001231
2.0135	0.114248	0.083219	0.007164	0.006387	0.009047	0.050651	0.012728	0.014507	0.005937	0.004372	0.35583	0.004483	0.012632	0.116484	0.018874	0.001199
2.014	0.114714	0.083529	0.00724	0.006434	0.009086	0.050499	0.012789	0.014632	0.00594	0.004396	0.356659	0.004532	0.012679	0.118026	0.019149	0.001167
2.0145	0.115171	0.083842	0.007316	0.006482	0.009127	0.050352	0.012851	0.014759	0.005942	0.004421	0.35742	0.004582	0.012727	0.119588	0.019427	0.001134
2.015	0.115618	0.084156	0.007393	0.00653	0.009172	0.050209	0.012913	0.014887	0.005942	0.004446	0.358109	0.004632	0.012774	0.121169	0.019708	0.001102
2.0155	0.116055	0.084473	0.007471	0.006578	0.009219	0.05007	0.012975	0.015016	0.005942	0.00447	0.358726	0.004682	0.012822	0.122769	0.019992	0.001069
2.016	0.116482	0.084791	0.00755	0.006626	0.00927	0.049936	0.013037	0.015147	0.00594	0.004495	0.35927	0.004734	0.012869	0.124389	0.020279	0.001037
2.0165	0.116898	0.085111	0.00763	0.006674	0.009324	0.049806	0.0131	0.01528	0.005936	0.00452	0.35974	0.004786	0.012917	0.126028	0.020569	0.001004
2.017	0.117304	0.085432	0.00771	0.006723	0.009381	0.049681	0.013163	0.015413	0.005932	0.004545	0.360135	0.004839	0.012965	0.127687	0.020861	0.000972
2.0175	0.117698	0.085755	0.007792	0.006772	0.009441	0.04956	0.013226	0.015548	0.005926	0.00457	0.360453	0.004893	0.013013	0.129366	0.021157	0.00094
2.018	0.118082	0.086079	0.007874	0.006821	0.009504	0.049445	0.01329	0.015684	0.005919	0.004595	0.360695	0.004947	0.013062	0.131063	0.021455	0.000908
2.0185	0.118454	0.086405	0.007957	0.00687	0.009571	0.049335	0.013353	0.015822	0.005911	0.00462	0.360859	0.005002	0.013111	0.13278	0.021756	0.000877
2.019	0.118815	0.086731	0.00804	0.006919	0.009642	0.04923	0.013417	0.01596	0.005902	0.004646	0.360945	0.005057	0.013159	0.134517	0.02206	0.000845
2.0195	0.119164	0.087059	0.008125	0.006968	0.009715	0.04913	0.013481	0.0161	0.005891	0.004671	0.360953	0.005114	0.013208	0.136272	0.022366	0.000814
2.02	0.119502	0.087387	0.00821	0.007018	0.009793	0.049036	0.013546	0.016241	0.00588	0.004696	0.360883	0.005171	0.013258	0.138046	0.022675	0.000784
2.0205	0.119827	0.087715	0.008296	0.007067	0.009874	0.048948	0.01361	0.016383	0.005867	0.004722	0.360735	0.005229	0.013307	0.139838	0.022987	0.000753
2.021	0.12014	0.088044	0.008382	0.007117	0.009958	0.048866	0.013675	0.016526	0.005853	0.004747	0.360508	0.005287	0.013357	0.141649	0.023301	0.000724
2.0215	0.12044	0.088374	0.008469	0.007167	0.010046	0.048789	0.01374	0.016671	0.005837	0.004773	0.360202	0.005346	0.013407	0.143477	0.023618	0.000694
2.022	0.120728	0.088703	0.008556	0.007217	0.010138	0.048719	0.013804	0.016816	0.005821	0.004798	0.359818	0.005406	0.013457	0.145323	0.023937	0.000665
2.0225	0.121004	0.089033	0.008644	0.007267	0.010233	0.048655	0.013869	0.016963	0.005804	0.004824	0.359356	0.005466	0.013508	0.147186	0.024259	0.000637
2.023	0.121268	0.089362	0.008733	0.007318	0.010332	0.048597	0.013935	0.01711	0.005785	0.00485	0.358817	0.005527	0.013558	0.149066	0.024583	0.00061
2.0235	0.121519	0.089692	0.008822	0.007368	0.010435	0.048546	0.014	0.017259	0.005766	0.004876	0.358202	0.005589	0.013609	0.150961	0.02491	0.000583
2.024	0.121759	0.090021	0.008911	0.007419	0.010542	0.048502	0.014065	0.017409	0.005745	0.004902	0.357512	0.005651	0.01366	0.152872	0.025238	0.000557
2.0245	0.121988	0.09035	0.009001	0.007469	0.010653	0.048464	0.01413	0.017559	0.005724	0.004928	0.356749	0.005714	0.013711	0.154798	0.025569	0.000531
2.025	0.122205	0.09068	0.009091	0.00752	0.010767	0.048432	0.014196	0.017711	0.005701	0.004954	0.355913	0.005778	0.013763	0.156739	0.025902	0.000507
2.0255	0.122411	0.091009	0.009181	0.007571	0.010885	0.048408	0.014261	0.017863	0.005678	0.00498	0.355007	0.005843	0.013814	0.158693	0.026237	0.000484
2.026	0.122607	0.091338	0.009272	0.007622	0.011008	0.04839	0.014327	0.018016	0.005654	0.005007	0.35403	0.005908	0.013866	0.16066	0.026574	0.000461
2.0265	0.122792	0.091667	0.009363	0.007673	0.011134	0.048379	0.014393	0.01817	0.005629	0.005034	0.352985	0.005973	0.013918	0.162639	0.026913	0.00044
2.027	0.122967	0.091995	0.009454	0.007725	0.011264	0.048375	0.014459	0.018325	0.005603	0.00506	0.351872	0.006039	0.013969	0.16463	0.027253	0.00042
2.0275	0.123131	0.092323	0.009546	0.007776	0.011399	0.048377	0.014525	0.018481	0.005577	0.005087	0.350694	0.006106	0.014021	0.166632	0.027595	0.000402
2.028	0.123287	0.092652	0.009638	0.007828	0.011537	0.048387	0.014591	0.018637	0.00555	0.005114	0.349452	0.006174	0.014073	0.168643	0.027939	0.000384
2.0285	0.123432	0.09298	0.00973	0.007879	0.01168	0.048403	0.014657	0.018793	0.005523	0.005141	0.348147	0.006242	0.014126	0.170663	0.028285	0.000369
2.029	0.123569	0.093308	0.009822	0.007931	0.011826	0.048427	0.014724	0.018951	0.005495	0.005169	0.346781	0.006311	0.014178	0.172691	0.028631	0.000355
2.0295	0.123696	0.093637	0.009915	0.007983	0.011977	0.048456	0.014791	0.019109	0.005466	0.005196	0.345355	0.00638	0.01423	0.174725	0.02898	0.000343
2.03	0.123815	0.093966	0.010008	0.008034	0.012132	0.048493	0.014857	0.019267	0.005437	0.005224	0.34387	0.00645	0.014282	0.176766	0.029329	0.000332
2.0305	0.123926	0.094295	0.010101	0.008086	0.012291	0.048536	0.014924	0.019426	0.005408	0.005252	0.342329	0.00652	0.014334	0.178811	0.029679	0.000324
2.031	0.124028	0.094625	0.010194	0.008138	0.012454	0.048586	0.014992	0.019585	0.005379	0.00528	0.340733	0.006591	0.014386	0.18086	0.030031	0.000317
2.0315	0.124123	0.094955	0.010288	0.00819	0.012621	0.048643	0.015059	0.019744	0.005349	0.005309	0.339083	0.006662	0.014437	0.182912	0.030383	0.000313
2.032	0.12421	0.095286	0.010382	0.008242	0.012793	0.048706	0.015127	0.019904	0.005319	0.005337	0.33738	0.006734	0.014489	0.184964	0.030737	0.000311
2.0325	0.124289	0.095618	0.010476	0.008294	0.012969	0.048776	0.015194	0.020064	0.005289	0.005366	0.335628	0.006807	0.01454	0.187017	0.031091	0.000312
2.033	0.124361	0.09595	0.01057	0.008346	0.01315	0.048851	0.015262	0.020224	0.005259	0.005395	0.333826	0.00688	0.014591	0.189069	0.031445	0.000315
2.0335	0.124425	0.096284	0.010664	0.008398	0.013335	0.048934	0.01533	0.020384	0.005229	0.005424	0.331976	0.006953	0.014641	0.191118	0.0318	0.000321
2.034	0.124483	0.096618	0.010758	0.008451	0.013525	0.049022	0.015398	0.020544	0.005199	0.005454	0.330081	0.007027	0.014691	0.193163	0.032156	0.000329
2.0345	0.124533	0.096954	0.010853	0.008503	0.01372	0.049116	0.015466	0.020704	0.005169	0.005483	0.328142	0.007101	0.014741	0.195203	0.032512	0.000341
2.035	0.124576	0.09729	0.010947	0.008555	0.013919	0.049216	0.015535	0.020864	0.00514	0.005513	0.32616	0.007176	0.014789	0.197236	0.032867	0.000355
2.0355	0.124613	0.097627	0.011042	0.008607	0.014123	0.049322	0.015603	0.021024	0.00511	0.005543	0.324138	0.007251	0.014838	0.199261	0.033223	0.000373
2.036	0.124642	0.097966	0.011137	0.008659	0.014331	0.049433	0.015672	0.021183	0.005081	0.005573	0.322076	0.007326	0.014885	0.201276	0.033579	0.000394
2.0365	0.124665	0.098306	0.011231	0.008711	0.014545	0.04955	0.01574	0.021343	0.005052	0.005603	0.319977	0.007402	0.014932	0.20328	0.033934	0.000419
2.037	0.12468	0.098647	0.011325	0.008763	0.014763	0.049672	0.015809	0.021502	0.005023	0.005633	0.317841	0.007478	0.014977	0.205272	0.034289	0.000447
2.0375	0.124689	0.09899	0.01142	0.008816	0.014987	0.049798	0.015878	0.02166	0.004995	0.005664	0.315672	0.007555	0.015022	0.207249	0.034643	0.000478
2.038	0.124691	0.099334	0.011514	0.008867	0.015216	0.04993	0.015946	0.021818	0.004967	0.005695	0.31347	0.007632	0.015066	0.20921	0.034997	0.000514
2.0385	0.124686	0.09968	0.011608	0.008919	0.015449	0.050066	0.016015	0.021975	0.00494	0.005725	0.311237	0.007709	0.015109	0.211154	0.03535	0.000553
2.039	0.124674	0.100028	0.011702	0.008971	0.015688	0.050206	0.016084	0.022132	0.004914	0.005756	0.308974	0.007786	0.015151	0.213079	0.035702	0.000597
2.0395	0.124655	0.100378	0.011795	0.009023	0.015932	0.050351	0.016153	0.022289	0.004888	0.005787	0.306683	0.007864	0.015191	0.214983	0.036053	0.000645
2.04	0.124629	0.100729	0.011888	0.009074	0.016182	0.050499	0.016221	0.022444	0.004863	0.005819	0.304366	0.007941	0.01523	0.216865	0.036403	0.000697
2.0405	0.124597	0.101082	0.011981	0.009125	0.016437	0.05065	0.01629	0.022599	0.004839	0.00585	0.302023	0.008019	0.015267	0.218724	0.036752	0.000754
2.041	0.124557	0.101437	0.012074	0.009176	0.016697	0.050805	0.016359	0.022754	0.004815	0.005881	0.299656	0.008097	0.015303	0.220558	0.0371	0.000815
2.0415	0.124511	0.101794	0.012166	0.009227	0.016963	0.050962	0.016428	0.022908	0.004793	0.005913	0.297266	0.008175	0.015338	0.222366	0.037446	0.000881
2.042	0.124457	0.102153	0.012257	0.009277	0.017235	0.051122	0.016497	0.023061	0.004772	0.005945	0.294854	0.008253	0.015371	0.224147	0.037792	0.000953
2.0425	0.124396	0.102513	0.012348	0.009328	0.017513	0.051285	0.016566	0.023214	0.004752	0.005976	0.292421	0.008332	0.015401	0.225899	0.038135	0.001029
2.043	0.124328	0.102875	0.012438	0.009378	0.017796	0.051449	0.016635	0.023366	0.004732	0.006008	0.289969	0.00841	0.01543	0.227623	0.038478	0.001111
2.0435	0.124252	0.103238	0.012528	0.009427	0.018085	0.051615	0.016705	0.023517	0.004715	0.00604	0.287498	0.008488	0.015457	0.229316	0.038819	0.001198
2.044	0.124168	0.103603	0.012618	0.009476	0.01838	0.051783	0.016774	0.023668	0.004698	0.006072	0.285008	0.008566	0.015482	0.230978	0.039158	0.00129
2.0445	0.124077	0.103969	0.012706	0.009525	0.01868	0.051951	0.016843	0.023819	0.004683	0.006104	0.282503	0.008645	0.015504	0.232608	0.039496	0.001389
2.045	0.123978	0.104336	0.012794	0.009574	0.018987	0.052121	0.016913	0.023969	0.00467	0.006136	0.279981	0.008722	0.015524	0.234206	0.039832	0.001493
2.0455	0.12387	0.104705	0.012882	0.009622	0.0193	0.052291	0.016982	0.024118	0.004658	0.006168	0.277444	0.0088	0.015542	0.23577	0.040167	0.001603
2.046	0.123754	0.105074	0.012968	0.00967	0.019619	0.052461	0.017052	0.024267	0.004647	0.0062	0.274894	0.008878	0.015557	0.2373	0.0405	0.00172
2.0465	0.123629	0.105445	0.013054	0.009717	0.019944	0.052631	0.017122	0.024415	0.004638	0.006233	0.27233	0.008956	0.015569	0.238795	0.040831	0.001843
2.047	0.123496	0.105816	0.013139	0.009764	0.020275	0.0528	0.017192	0.024563	0.004631	0.006265	0.269755	0.009033	0.015578	0.240256	0.041161	0.001972
2.0475	0.123353	0.106187	0.013224	0.00981	0.020612	0.052969	0.017261	0.02471	0.004626	0.006298	0.267168	0.00911	0.015584	0.241682	0.04149	0.002109
2.048	0.123201	0.106559	0.013308	0.009856	0.020955	0.053137	0.017332	0.024856	0.004623	0.00633	0.264572	0.009187	0.015587	0.243073	0.041817	0.002252
2.0485	0.12304	0.106931	0.01339	0.009902	0.021304	0.053304	0.017402	0.025001	0.004622	0.006363	0.261967	0.009264	0.015587	0.244432	0.042142	0.002402
2.049	0.122869	0.107303	0.013473	0.009947	0.02166	0.053469	0.017472	0.025146	0.004623	0.006396	0.259354	0.00934	0.015584	0.245757	0.042466	0.00256
2.0495	0.122688	0.107675	0.013554	0.009991	0.022022	0.053633	0.017543	0.025291	0.004626	0.006428	0.256734	0.009416	0.015577	0.247051	0.042789	0.002724
2.05	0.122498	0.108046	0.013634	0.010035	0.022391	0.053795	0.017614	0.025434	0.004631	0.006461	0.254109	0.009493	0.015567	0.248315	0.04311	0.002897
2.0505	0.122298	0.108416	0.013714	0.010079	0.022766	0.053956	0.017685	0.025577	0.004638	0.006494	0.251478	0.009568	0.015553	0.249549	0.04343	0.003077
2.051	0.122088	0.108785	0.013792	0.010122	0.023147	0.054114	0.017756	0.025719	0.004648	0.006528	0.248844	0.009644	0.015535	0.250755	0.043749	0.003265
2.0515	0.121868	0.109153	0.01387	0.010165	0.023534	0.05427	0.017828	0.025861	0.004661	0.006561	0.246207	0.00972	0.015514	0.251934	0.044066	0.003462
2.052	0.121638	0.10952	0.013946	0.010207	0.023928	0.054424	0.0179	0.026001	0.004675	0.006595	0.243568	0.009795	0.015489	0.253088	0.044383	0.003666
2.0525	0.121398	0.109885	0.014022	0.01025	0.024329	0.054576	0.017972	0.026141	0.004693	0.006628	0.240929	0.00987	0.015461	0.254217	0.044698	0.00388
2.053	0.121148	0.110248	0.014097	0.010291	0.024736	0.054724	0.018045	0.026281	0.004713	0.006662	0.23829	0.009945	0.015428	0.255324	0.045013	0.004101
2.0535	0.120889	0.110609	0.014171	0.010333	0.025149	0.05487	0.018118	0.02642	0.004736	0.006696	0.235652	0.01002	0.015392	0.256409	0.045327	0.004332
2.054	0.12062	0.110968	0.014244	0.010374	0.025569	0.055013	0.018191	0.026558	0.004761	0.006731	0.233017	0.010094	0.015352	0.257476	0.04564	0.004572
2.0545	0.120341	0.111325	0.014316	0.010415	0.025996	0.055153	0.018266	0.026696	0.00479	0.006766	0.230385	0.010168	0.015308	0.258524	0.045953	0.004821
2.055	0.120052	0.111679	0.014387	0.010456	0.02643	0.05529	0.01834	0.026833	0.004821	0.006801	0.227757	0.010243	0.015261	0.259556	0.046266	0.00508
2.0555	0.119754	0.11203	0.014457	0.010496	0.02687	0.055424	0.018415	0.026969	0.004856	0.006836	0.225133	0.010316	0.01521	0.260574	0.046578	0.005348
2.056	0.119447	0.112379	0.014527	0.010537	0.027317	0.055554	0.018491	0.027106	0.004893	0.006871	0.222515	0.01039	0.015155	0.261577	0.046891	0.005627
2.0565	0.11913	0.112724	0.014595	0.010577	0.027771	0.055681	0.018568	0.027242	0.004934	0.006908	0.219904	0.010463	0.015097	0.262569	0.047204	0.005915
2.057	0.118803	0.113065	0.014663	0.010617	0.028232	0.055804	0.018645	0.027378	0.004978	0.006944	0.217299	0.010536	0.015036	0.263549	0.047517	0.006213
2.0575	0.118468	0.113402	0.01473	0.010657	0.0287	0.055924	0.018724	0.027514	0.005025	0.006981	0.214701	0.010609	0.014971	0.264521	0.04783	0.006523
2.058	0.118123	0.113736	0.014796	0.010696	0.029175	0.056041	0.018803	0.02765	0.005075	0.007018	0.212112	0.010682	0.014903	0.265484	0.048144	0.006842
2.0585	0.117769	0.114065	0.014862	0.010736	0.029656	0.056154	0.018883	0.027786	0.005129	0.007056	0.209532	0.010754	0.014831	0.266442	0.048458	0.007173
2.059	0.117407	0.11439	0.014926	0.010775	0.030145	0.056264	0.018963	0.027922	0.005186	0.007094	0.206961	0.010826	0.014757	0.267394	0.048773	0.007515
2.0595	0.117035	0.11471	0.014991	0.010815	0.030641	0.05637	0.019045	0.028058	0.005247	0.007133	0.2044	0.010898	0.01468	0.268343	0.049089	0.007868
2.06	0.116655	0.115025	0.015055	0.010854	0.031144	0.056473	0.019128	0.028195	0.005312	0.007172	0.20185	0.01097	0.014599	0.26929	0.049405	0.008233
2.0605	0.116267	0.115335	0.015118	0.010893	0.031655	0.056573	0.019212	0.028332	0.00538	0.007212	0.19931	0.011041	0.014516	0.270236	0.049723	0.00861
2.061	0.11587	0.115639	0.015181	0.010932	0.032172	0.056669	0.019297	0.028469	0.005452	0.007252	0.196783	0.011112	0.014431	0.271182	0.050041	0.008998
2.0615	0.115465	0.115937	0.015244	0.010971	0.032697	0.056762	0.019383	0.028607	0.005528	0.007294	0.194267	0.011183	0.014343	0.27213	0.05036	0.009399
2.062	0.115052	0.116229	0.015306	0.011009	0.03323	0.056852	0.01947	0.028745	0.005607	0.007335	0.191763	0.011253	0.014252	0.27308	0.050681	0.009813
2.0625	0.114632	0.116515	0.015368	0.011048	0.033769	0.05694	0.019558	0.028884	0.005691	0.007378	0.189272	0.011323	0.01416	0.274035	0.051002	0.010238
2.063	0.114203	0.116794	0.01543	0.011086	0.034316	0.057024	0.019647	0.029023	0.005778	0.007421	0.186795	0.011393	0.014065	0.274994	0.051325	0.010677
2.0635	0.113768	0.117066	0.015491	0.011124	0.034871	0.057106	0.019738	0.029163	0.00587	0.007464	0.184331	0.011463	0.013969	0.275959	0.051649	0.011129
2.064	0.113325	0.117331	0.015552	0.011162	0.035433	0.057185	0.019829	0.029304	0.005966	0.007509	0.181881	0.011533	0.01387	0.276932	0.051974	0.011594
2.0645	0.112876	0.117587	0.015614	0.0112	0.036003	0.057261	0.019922	0.029445	0.006066	0.007554	0.179445	0.011602	0.01377	0.277912	0.052302	0.012072
2.065	0.11242	0.117836	0.015675	0.011237	0.036581	0.057336	0.020016	0.029587	0.00617	0.0076	0.177024	0.011671	0.013669	0.278902	0.05263	0.012564
2.0655	0.111959	0.118077	0.015736	0.011274	0.037166	0.057408	0.020111	0.02973	0.006279	0.007646	0.174617	0.01174	0.013566	0.279902	0.052961	0.01307
2.066	0.111491	0.118308	0.015797	0.011311	0.037759	0.057479	0.020207	0.029873	0.006392	0.007693	0.172225	0.011809	0.013462	0.280914	0.053294	0.013591
2.0665	0.111018	0.11853	0.015858	0.011348	0.038359	0.057549	0.020304	0.030017	0.006509	0.007742	0.169849	0.011878	0.013357	0.281938	0.053629	0.014125
2.067	0.11054	0.118743	0.01592	0.011385	0.038968	0.057617	0.020403	0.030162	0.006631	0.00779	0.167488	0.011947	0.01325	0.282975	0.053967	0.014674
2.0675	0.110056	0.118947	0.015981	0.011421	0.039584	0.057686	0.020503	0.030307	0.006758	0.00784	0.165143	0.012016	0.013143	0.284026	0.054307	0.015238
2.068	0.109568	0.11914	0.016043	0.011457	0.040208	0.057754	0.020603	0.030454	0.006889	0.00789	0.162815	0.012084	0.013035	0.285091	0.054651	0.015817
2.0685	0.109076	0.119323	0.016105	0.011493	0.040839	0.057822	0.020705	0.030601	0.007026	0.007942	0.160502	0.012153	0.012927	0.286173	0.054998	0.016411
2.069	0.108579	0.119495	0.016167	0.011529	0.041478	0.057892	0.020808	0.030749	0.007167	0.007994	0.158207	0.012222	0.012817	0.28727	0.055349	0.017021
2.0695	0.108079	0.119656	0.016229	0.011565	0.042125	0.057962	0.020913	0.030898	0.007313	0.008047	0.155928	0.012291	0.012708	0.288385	0.055703	0.017647
2.07	0.107576	0.119806	0.016292	0.0116	0.042779	0.058034	0.021018	0.031048	0.007464	0.008101	0.153666	0.01236	0.012598	0.289518	0.056061	0.018289
2.0705	0.107069	0.119944	0.016356	0.011635	0.04344	0.058108	0.021125	0.031199	0.00762	0.008155	0.151422	0.01243	0.012488	0.29067	0.056424	0.018948
2.071	0.106561	0.12007	0.016419	0.011669	0.044109	0.058185	0.021232	0.031352	0.007781	0.008211	0.149196	0.012499	0.012378	0.291842	0.056791	0.019624
2.0715	0.10605	0.120183	0.016484	0.011704	0.044786	0.058265	0.021341	0.031505	0.007947	0.008267	0.146987	0.012569	0.012268	0.293035	0.057164	0.020317
2.072	0.105538	0.120284	0.016549	0.011738	0.045469	0.058349	0.021451	0.031661	0.008119	0.008325	0.144797	0.01264	0.012158	0.29425	0.057541	0.021027
2.0725	0.105025	0.120372	0.016614	0.011771	0.04616	0.058437	0.021562	0.031817	0.008296	0.008383	0.142624	0.01271	0.012048	0.295488	0.057924	0.021756
2.073	0.10451	0.120446	0.016681	0.011805	0.046858	0.05853	0.021674	0.031976	0.008478	0.008442	0.140471	0.012781	0.011939	0.296749	0.058313	0.022502
2.0735	0.103996	0.120507	0.016748	0.011838	0.047563	0.058629	0.021787	0.032136	0.008666	0.008502	0.138337	0.012853	0.01183	0.298034	0.058708	0.023268
2.074	0.103481	0.120554	0.016816	0.011871	0.048275	0.058734	0.021902	0.032298	0.00886	0.008564	0.136221	0.012925	0.011721	0.299345	0.05911	0.024052
2.0745	0.102967	0.120587	0.016885	0.011903	0.048994	0.058846	0.022017	0.032463	0.009059	0.008626	0.134126	0.012998	0.011613	0.300681	0.059518	0.024855
2.075	0.102454	0.120605	0.016955	0.011935	0.049719	0.058965	0.022134	0.032629	0.009263	0.008689	0.13205	0.013071	0.011506	0.302044	0.059934	0.025678
2.0755	0.101942	0.12061	0.017027	0.011967	0.05045	0.059092	0.022252	0.032798	0.009474	0.008753	0.129994	0.013145	0.011399	0.303434	0.060357	0.026521
2.076	0.101432	0.1206	0.017099	0.011998	0.051188	0.059228	0.022371	0.032968	0.00969	0.008818	0.127958	0.01322	0.011294	0.304851	0.060788	0.027384
2.0765	0.100924	0.120575	0.017172	0.012029	0.051932	0.059372	0.022492	0.033142	0.009912	0.008884	0.125943	0.013295	0.011189	0.306297	0.061226	0.028268
2.077	0.100419	0.120535	0.017247	0.012059	0.052681	0.059527	0.022614	0.033318	0.01014	0.008951	0.123947	0.013371	0.011085	0.307771	0.061673	0.029173
2.0775	0.099918	0.12048	0.017323	0.012089	0.053437	0.059692	0.022737	0.033497	0.010374	0.009019	0.121972	0.013447	0.010983	0.309274	0.062129	0.0301
2.078	0.09942	0.120411	0.017401	0.012119	0.054197	0.059868	0.022861	0.033678	0.010614	0.009088	0.120018	0.013525	0.010881	0.310806	0.062594	0.031048
2.0785	0.098927	0.120327	0.01748	0.012148	0.054963	0.060055	0.022987	0.033862	0.010861	0.009158	0.118083	0.013603	0.010781	0.312367	0.063067	0.032019
2.079	0.098439	0.120228	0.01756	0.012177	0.055734	0.060254	0.023114	0.034049	0.011113	0.009229	0.116169	0.013682	0.010682	0.313958	0.06355	0.033012
2.0795	0.097956	0.120114	0.017642	0.012206	0.05651	0.060466	0.023243	0.034239	0.011371	0.009301	0.114276	0.013762	0.010585	0.315579	0.064042	0.034028
2.08	0.097479	0.119987	0.017726	0.012234	0.05729	0.06069	0.023373	0.034431	0.011636	0.009374	0.112403	0.013843	0.010489	0.317229	0.064544	0.035067
2.0805	0.097008	0.119845	0.017811	0.012262	0.058074	0.060928	0.023505	0.034627	0.011907	0.009448	0.11055	0.013924	0.010394	0.318909	0.065055	0.03613
2.081	0.096544	0.119689	0.017897	0.01229	0.058863	0.06118	0.023638	0.034826	0.012185	0.009523	0.108717	0.014007	0.010301	0.320619	0.065576	0.037217
2.0815	0.096087	0.119519	0.017986	0.012317	0.059655	0.061446	0.023773	0.035027	0.012469	0.009599	0.106905	0.01409	0.01021	0.322357	0.066107	0.038329
2.082	0.095637	0.119336	0.018075	0.012344	0.060451	0.061727	0.023909	0.035232	0.01276	0.009676	0.105113	0.014174	0.01012	0.324125	0.066649	0.039465
2.0825	0.095195	0.119138	0.018167	0.012371	0.06125	0.062024	0.024047	0.035439	0.013057	0.009754	0.10334	0.014259	0.010032	0.32592	0.0672	0.040626
2.083	0.094761	0.118928	0.01826	0.012397	0.062051	0.062336	0.024186	0.03565	0.013361	0.009833	0.101588	0.014345	0.009945	0.327744	0.067762	0.041813
2.0835	0.094335	0.118703	0.018355	0.012423	0.062855	0.062664	0.024328	0.035863	0.013671	0.009912	0.099856	0.014432	0.00986	0.329595	0.068334	0.043025
2.084	0.093918	0.118466	0.018451	0.012449	0.063662	0.063009	0.024471	0.036079	0.013988	0.009992	0.098143	0.01452	0.009778	0.331473	0.068917	0.044264
2.0845	0.093509	0.118216	0.018549	0.012474	0.06447	0.063371	0.024615	0.036298	0.014312	0.010074	0.09645	0.014609	0.009697	0.333376	0.069509	0.04553
2.085	0.093109	0.117953	0.018649	0.012499	0.065279	0.06375	0.024762	0.03652	0.014643	0.010156	0.094776	0.014698	0.009617	0.335305	0.070113	0.046822
2.0855	0.092719	0.117677	0.01875	0.012524	0.06609	0.064147	0.02491	0.036745	0.014981	0.010239	0.093122	0.014789	0.00954	0.337258	0.070726	0.048141
2.086	0.092338	0.117389	0.018854	0.012549	0.066902	0.064562	0.025059	0.036972	0.015326	0.010322	0.091487	0.01488	0.009465	0.339234	0.07135	0.049488
2.0865	0.091966	0.117089	0.018958	0.012573	0.067714	0.064995	0.025211	0.037203	0.015677	0.010407	0.089871	0.014972	0.009392	0.341231	0.071984	0.050863
2.087	0.091604	0.116778	0.019065	0.012597	0.068526	0.065447	0.025364	0.037435	0.016036	0.010492	0.088274	0.015065	0.009321	0.34325	0.072629	0.052265
2.0875	0.091251	0.116455	0.019173	0.012621	0.069338	0.065919	0.025518	0.037671	0.016402	0.010578	0.086697	0.015159	0.009252	0.345288	0.073283	0.053696
2.088	0.090908	0.116121	0.019283	0.012644	0.070149	0.066409	0.025675	0.037909	0.016775	0.010664	0.085138	0.015253	0.009184	0.347343	0.073948	0.055156
2.0885	0.090575	0.115777	0.019395	0.012667	0.07096	0.06692	0.025833	0.03815	0.017156	0.010752	0.083598	0.015348	0.00912	0.349416	0.074623	0.056645
2.089	0.090252	0.115422	0.019508	0.01269	0.07177	0.06745	0.025992	0.038393	0.017544	0.01084	0.082077	0.015444	0.009057	0.351503	0.075307	0.058163
2.0895	0.089938	0.115057	0.019623	0.012712	0.072578	0.068001	0.026153	0.038638	0.017939	0.010928	0.080574	0.01554	0.008996	0.353604	0.076002	0.059711
2.09	0.089634	0.114683	0.01974	0.012734	0.073384	0.068573	0.026315	0.038886	0.018342	0.011018	0.07909	0.015637	0.008938	0.355717	0.076706	0.061288
2.0905	0.08934	0.114298	0.019858	0.012755	0.074188	0.069165	0.026479	0.039137	0.018752	0.011108	0.077625	0.015735	0.008882	0.357839	0.077419	0.062895
2.091	0.089055	0.113905	0.019978	0.012776	0.07499	0.069778	0.026644	0.039389	0.01917	0.011199	0.076178	0.015833	0.008828	0.359969	0.078142	0.064532
2.0915	0.08878	0.113502	0.0201	0.012797	0.075789	0.070413	0.026811	0.039644	0.019596	0.01129	0.074749	0.015931	0.008776	0.362105	0.078873	0.0662
2.092	0.088514	0.113091	0.020223	0.012817	0.076586	0.07107	0.026978	0.0399	0.020029	0.011383	0.073339	0.01603	0.008727	0.364244	0.079614	0.067898
2.0925	0.088257	0.112671	0.020347	0.012837	0.077381	0.071748	0.027147	0.040158	0.020471	0.011476	0.071947	0.01613	0.008679	0.366386	0.080363	0.069626
2.093	0.088009	0.112243	0.020474	0.012856	0.078173	0.072449	0.027318	0.040419	0.02092	0.01157	0.070574	0.016229	0.008635	0.368527	0.081121	0.071386
2.0935	0.08777	0.111807	0.020601	0.012874	0.078962	0.073171	0.027489	0.04068	0.021378	0.011664	0.069218	0.016329	0.008592	0.370666	0.081887	0.073176
2.094	0.08754	0.111363	0.020731	0.012892	0.079748	0.073916	0.027661	0.040944	0.021843	0.01176	0.067881	0.016429	0.008552	0.3728	0.082662	0.074998
2.0945	0.087319	0.110911	0.020861	0.012909	0.080532	0.074684	0.027835	0.041208	0.022317	0.011856	0.066562	0.016529	0.008514	0.374928	0.083444	0.07685
2.095	0.087106	0.110453	0.020993	0.012926	0.081313	0.075474	0.028009	0.041474	0.022799	0.011953	0.065261	0.016629	0.008479	0.377046	0.084235	0.078734
2.0955	0.086901	0.109987	0.021126	0.012942	0.082091	0.076287	0.028184	0.041741	0.023289	0.012051	0.063978	0.016729	0.008446	0.379152	0.085033	0.080649
2.096	0.086703	0.109515	0.021261	0.012957	0.082865	0.077123	0.02836	0.042008	0.023788	0.012149	0.062712	0.016829	0.008415	0.381245	0.085838	0.082596
2.0965	0.086514	0.109036	0.021396	0.012971	0.083637	0.077982	0.028537	0.042276	0.024295	0.012248	0.061465	0.016929	0.008387	0.383321	0.08665	0.084574
2.097	0.086332	0.108551	0.021533	0.012985	0.084406	0.078864	0.028714	0.042545	0.02481	0.012348	0.060235	0.017029	0.008361	0.385377	0.087469	0.086583
2.0975	0.086157	0.108059	0.021671	0.012998	0.085171	0.079769	0.028892	0.042814	0.025334	0.012449	0.059023	0.017129	0.008337	0.387412	0.088295	0.088624
2.098	0.085988	0.107562	0.02181	0.01301	0.085934	0.080697	0.02907	0.043083	0.025867	0.012551	0.057828	0.017228	0.008316	0.389422	0.089127	0.090697
2.0985	0.085827	0.107059	0.02195	0.013021	0.086693	0.081647	0.029248	0.043352	0.026408	0.012653	0.056651	0.017326	0.008297	0.391405	0.089965	0.092801
2.099	0.085671	0.106551	0.02209	0.013032	0.087449	0.082622	0.029427	0.043621	0.026958	0.012757	0.055491	0.017425	0.008281	0.393359	0.090809	0.094937
2.0995	0.085522	0.106037	0.022232	0.013042	0.088202	0.083619	0.029606	0.043889	0.027516	0.012861	0.054348	0.017522	0.008266	0.395282	0.091658	0.097104
2.1	0.085379	0.105518	0.022374	0.01305	0.088952	0.084639	0.029785	0.044158	0.028083	0.012966	0.053222	0.017619	0.008255	0.39717	0.092513	0.099303
2.1005	0.085241	0.104995	0.022517	0.013058	0.0897	0.085682	0.029964	0.044426	0.02866	0.013071	0.052113	0.017715	0.008245	0.399023	0.093373	0.101534
2.101	0.085109	0.104466	0.02266	0.013065	0.090444	0.086747	0.030143	0.044693	0.029245	0.013178	0.05102	0.017811	0.008238	0.400837	0.094238	0.103796
2.1015	0.084982	0.103933	0.022804	0.013071	0.091186	0.087836	0.030322	0.04496	0.029839	0.013285	0.049945	0.017906	0.008233	0.402611	0.095108	0.106089
2.102	0.08486	0.103395	0.022948	0.013077	0.091925	0.088947	0.030501	0.045226	0.030442	0.013393	0.048886	0.018	0.008231	0.404342	0.095982	0.108413
2.1025	0.084743	0.102853	0.023092	0.013081	0.092661	0.09008	0.030679	0.045492	0.031054	0.013503	0.047843	0.018093	0.008231	0.406029	0.096861	0.110769
2.103	0.084631	0.102306	0.023237	0.013084	0.093394	0.091236	0.030857	0.045756	0.031675	0.013613	0.046817	0.018186	0.008233	0.40767	0.097744	0.113155
2.1035	0.084524	0.101755	0.023381	0.013087	0.094125	0.092414	0.031035	0.04602	0.032305	0.013723	0.045807	0.018278	0.008237	0.409262	0.09863	0.115573
2.104	0.084421	0.1012	0.023526	0.013088	0.094853	0.093614	0.031213	0.046283	0.032944	0.013835	0.044813	0.018369	0.008244	0.410806	0.09952	0.11802
2.1045	0.084322	0.100641	0.023671	0.013089	0.095578	0.094836	0.03139	0.046545	0.033592	0.013948	0.043835	0.01846	0.008253	0.412299	0.100414	0.120499
2.105	0.084228	0.100078	0.023816	0.013089	0.0963	0.096079	0.031566	0.046805	0.034249	0.014061	0.042874	0.01855	0.008264	0.413741	0.101311	0.123007
2.1055	0.084138	0.099511	0.02396	0.013088	0.097018	0.097344	0.031741	0.047066	0.034916	0.014175	0.041928	0.018639	0.008278	0.415128	0.102212	0.125545
2.106	0.084052	0.09894	0.024105	0.013085	0.097734	0.098629	0.031916	0.047325	0.035591	0.01429	0.040999	0.018727	0.008294	0.416462	0.103115	0.128113
2.1065	0.08397	0.098367	0.024249	0.013082	0.098446	0.099935	0.03209	0.047583	0.036275	0.014406	0.040085	0.018814	0.008312	0.417739	0.104022	0.13071
2.107	0.083892	0.09779	0.024393	0.013078	0.099154	0.101262	0.032263	0.04784	0.036968	0.014522	0.039187	0.018901	0.008332	0.418959	0.104932	0.133336
2.1075	0.083817	0.09721	0.024537	0.013073	0.099858	0.102608	0.032434	0.048097	0.037671	0.01464	0.038304	0.018987	0.008354	0.420122	0.105845	0.135991
2.108	0.083747	0.096627	0.02468	0.013067	0.100559	0.103974	0.032605	0.048352	0.038382	0.014758	0.037437	0.019072	0.008379	0.421225	0.106761	0.138674
2.1085	0.08368	0.096042	0.024823	0.01306	0.101255	0.105359	0.032774	0.048607	0.039101	0.014876	0.036585	0.019156	0.008406	0.422269	0.107681	0.141384
2.109	0.083617	0.095454	0.024965	0.013052	0.101946	0.106762	0.032942	0.048861	0.03983	0.014996	0.035748	0.019239	0.008435	0.423251	0.108604	0.144122
2.1095	0.083558	0.094864	0.025107	0.013042	0.102632	0.108184	0.033109	0.049113	0.040567	0.015116	0.034927	0.019322	0.008466	0.424171	0.10953	0.146887
2.11	0.083502	0.094271	0.025248	0.013032	0.103314	0.109624	0.033274	0.049365	0.041313	0.015236	0.034121	0.019404	0.0085	0.425028	0.110461	0.149679
2.1105	0.083451	0.093677	0.025388	0.013021	0.10399	0.111081	0.033437	0.049615	0.042067	0.015357	0.033331	0.019486	0.008535	0.42582	0.111395	0.152496
2.111	0.083404	0.09308	0.025527	0.013008	0.104661	0.112556	0.033599	0.049864	0.04283	0.015479	0.032555	0.019567	0.008573	0.426546	0.112333	0.155339
2.1115	0.083361	0.092482	0.025664	0.012994	0.105326	0.114046	0.033759	0.050112	0.043602	0.015601	0.031795	0.019647	0.008613	0.427205	0.113275	0.158207
2.112	0.083321	0.091881	0.025801	0.012979	0.105985	0.115553	0.033917	0.050359	0.044382	0.015724	0.03105	0.019727	0.008655	0.427795	0.114223	0.161099
2.1125	0.083285	0.09128	0.025937	0.012962	0.106639	0.117075	0.034072	0.050604	0.04517	0.015847	0.030321	0.019806	0.008699	0.428316	0.115175	0.164015
2.113	0.083253	0.090676	0.026071	0.012945	0.107286	0.118611	0.034226	0.050848	0.045967	0.01597	0.029607	0.019885	0.008744	0.428766	0.116133	0.166955
2.1135	0.083225	0.090072	0.026204	0.012926	0.107927	0.120162	0.034378	0.05109	0.046771	0.016094	0.028908	0.019963	0.008792	0.429144	0.117097	0.169917
2.114	0.0832	0.089467	0.026335	0.012905	0.108562	0.121726	0.034527	0.05133	0.047584	0.016218	0.028224	0.020041	0.008842	0.429448	0.118068	0.172902
2.1145	0.083178	0.088862	0.026466	0.012884	0.10919	0.123304	0.034674	0.051568	0.048405	0.016342	0.027556	0.020119	0.008894	0.429677	0.119045	0.175908
2.115	0.083159	0.088256	0.026594	0.01286	0.109811	0.124894	0.034819	0.051804	0.049233	0.016467	0.026903	0.020196	0.008948	0.42983	0.120029	0.178936
2.1155	0.083144	0.087651	0.026721	0.012836	0.110425	0.126495	0.034961	0.052038	0.05007	0.016592	0.026265	0.020273	0.009004	0.429905	0.12102	0.181984
2.116	0.083131	0.087046	0.026846	0.01281	0.111031	0.128107	0.035101	0.052269	0.050914	0.016717	0.025643	0.02035	0.009062	0.429902	0.122018	0.185053
2.1165	0.083121	0.086441	0.02697	0.012782	0.111629	0.12973	0.035237	0.052497	0.051766	0.016842	0.025036	0.020426	0.009121	0.429819	0.123025	0.188143
2.117	0.083113	0.085837	0.027091	0.012753	0.112218	0.131362	0.035371	0.052723	0.052625	0.016967	0.024444	0.020502	0.009183	0.429654	0.124039	0.191252
2.1175	0.083107	0.085234	0.027211	0.012723	0.1128	0.133003	0.035502	0.052946	0.053491	0.017092	0.023868	0.020577	0.009246	0.429406	0.125062	0.19438
2.118	0.083103	0.084633	0.027328	0.012691	0.113372	0.134651	0.03563	0.053165	0.054365	0.017217	0.023308	0.020652	0.009311	0.429075	0.126093	0.197528
2.1185	0.083101	0.084032	0.027443	0.012657	0.113935	0.136307	0.035755	0.053381	0.055245	0.017343	0.022763	0.020727	0.009378	0.428658	0.127133	0.200694
2.119	0.083101	0.083433	0.027556	0.012622	0.114489	0.137968	0.035876	0.053593	0.056132	0.017468	0.022233	0.020802	0.009447	0.428155	0.128181	0.203879
2.1195	0.083102	0.082836	0.027667	0.012586	0.115034	0.139634	0.035994	0.053802	0.057026	0.017593	0.021719	0.020876	0.009517	0.427565	0.129239	0.207081
2.12	0.083104	0.082241	0.027775	0.012548	0.115569	0.141305	0.036108	0.054006	0.057927	0.017718	0.021221	0.02095	0.009589	0.426889	0.130305	0.210301
2.1205	0.083107	0.081647	0.027881	0.012508	0.116093	0.142979	0.036219	0.054206	0.058834	0.017843	0.020738	0.021024	0.009662	0.426126	0.131381	0.213538
2.121	0.083112	0.081056	0.027984	0.012467	0.116607	0.144655	0.036326	0.054402	0.059747	0.017968	0.020271	0.021097	0.009737	0.425276	0.132467	0.216791
2.1215	0.083117	0.080467	0.028084	0.012425	0.117111	0.146331	0.036429	0.054592	0.060667	0.018092	0.019819	0.021171	0.009814	0.42434	0.133563	0.22006
2.122	0.083123	0.07988	0.028181	0.012381	0.117604	0.148008	0.036528	0.054778	0.061592	0.018216	0.019383	0.021244	0.009892	0.423317	0.134668	0.223344
2.1225	0.083129	0.079297	0.028275	0.012336	0.118086	0.149683	0.036623	0.054959	0.062523	0.01834	0.018962	0.021317	0.009972	0.422208	0.135784	0.226644
2.123	0.083136	0.078716	0.028366	0.012289	0.118557	0.151356	0.036713	0.055134	0.063459	0.018463	0.018557	0.02139	0.010053	0.421013	0.13691	0.229958
2.1235	0.083143	0.078138	0.028455	0.012241	0.119016	0.153025	0.0368	0.055303	0.064401	0.018586	0.018168	0.021464	0.010135	0.419733	0.138047	0.233286
2.124	0.083149	0.077564	0.02854	0.012192	0.119464	0.154689	0.036882	0.055467	0.065348	0.018708	0.017794	0.021537	0.010219	0.418367	0.139194	0.236628
2.1245	0.083156	0.076993	0.028622	0.012141	0.1199	0.156346	0.03696	0.055626	0.0663	0.01883	0.017435	0.021611	0.010303	0.416917	0.140351	0.239983
2.125	0.083162	0.076426	0.028701	0.01209	0.120324	0.157996	0.037033	0.055778	0.067257	0.018951	0.017092	0.021686	0.010389	0.415382	0.141519	0.24335
2.1255	0.083167	0.075863	0.028777	0.012038	0.120736	0.159636	0.037103	0.055924	0.068219	0.019072	0.016765	0.021761	0.010477	0.413765	0.142697	0.246729
2.126	0.083171	0.075304	0.028851	0.011984	0.121135	0.161267	0.037167	0.056065	0.069185	0.019192	0.016453	0.021837	0.010565	0.412067	0.143886	0.250119
2.1265	0.083173	0.074749	0.028921	0.011931	0.121522	0.162885	0.037227	0.056199	0.070155	0.019311	0.016156	0.021914	0.010654	0.410289	0.145085	0.253519
2.127	0.083175	0.074199	0.028989	0.011876	0.121895	0.16449	0.037283	0.056328	0.07113	0.019429	0.015874	0.021991	0.010744	0.408432	0.146294	0.256929
2.1275	0.083174	0.073654	0.029054	0.011821	0.122255	0.16608	0.037334	0.056451	0.072109	0.019547	0.015608	0.02207	0.010835	0.406499	0.147513	0.260347
2.128	0.083172	0.073114	0.029116	0.011766	0.122601	0.167655	0.03738	0.056568	0.073091	0.019664	0.015357	0.02215	0.010927	0.404491	0.148741	0.263773
2.1285	0.083168	0.072579	0.029176	0.011711	0.122933	0.169212	0.037422	0.056679	0.074078	0.019779	0.015121	0.022232	0.01102	0.402409	0.149978	0.267206
2.129	0.083162	0.072049	0.029233	0.011656	0.12325	0.17075	0.037459	0.056785	0.075068	0.019894	0.014901	0.022315	0.011113	0.400257	0.151225	0.270645
2.1295	0.083154	0.071526	0.029288	0.0116	0.123552	0.172268	0.037492	0.056885	0.076061	0.020008	0.014696	0.0224	0.011207	0.398035	0.15248	0.274089
2.13	0.083144	0.071008	0.02934	0.011546	0.123839	0.173764	0.03752	0.056981	0.077057	0.02012	0.014506	0.022487	0.011301	0.395744	0.153744	0.277536
2.1305	0.083132	0.070496	0.029391	0.011491	0.124109	0.175238	0.037543	0.057071	0.078056	0.020232	0.014331	0.022576	0.011396	0.393388	0.155015	0.280986
2.131	0.083117	0.06999	0.029439	0.011438	0.124364	0.176687	0.037563	0.057156	0.079057	0.020342	0.014171	0.022667	0.011491	0.390966	0.156294	0.284437
2.1315	0.083101	0.06949	0.029485	0.011385	0.124601	0.17811	0.037578	0.057236	0.080061	0.020452	0.014027	0.022762	0.011587	0.388481	0.157579	0.287888
2.132	0.083083	0.068997	0.029529	0.011334	0.124822	0.179507	0.037588	0.057312	0.081066	0.02056	0.013898	0.022859	0.011683	0.385934	0.158871	0.291338
2.1325	0.083064	0.06851	0.029572	0.011283	0.125026	0.180876	0.037595	0.057383	0.082073	0.020667	0.013785	0.02296	0.011779	0.383327	0.160168	0.294785
2.133	0.083042	0.06803	0.029613	0.011234	0.125212	0.182216	0.037597	0.05745	0.083081	0.020773	0.013687	0.023063	0.011875	0.38066	0.16147	0.298228
2.1335	0.08302	0.067557	0.029652	0.011187	0.125381	0.183526	0.037596	0.057513	0.08409	0.020878	0.013604	0.023171	0.011972	0.377936	0.162777	0.301666
2.134	0.082995	0.06709	0.029689	0.011141	0.125531	0.184805	0.037591	0.057572	0.0851	0.020981	0.013537	0.023282	0.012068	0.375157	0.164088	0.305098
2.1345	0.082969	0.06663	0.029725	0.011098	0.125663	0.186053	0.037581	0.057628	0.08611	0.021084	0.013485	0.023398	0.012164	0.372323	0.165401	0.308521
2.135	0.082941	0.066176	0.02976	0.011056	0.125776	0.187268	0.037568	0.05768	0.087119	0.021185	0.013448	0.023517	0.01226	0.369437	0.166717	0.311935
2.1355	0.082912	0.06573	0.029793	0.011017	0.125871	0.18845	0.037552	0.057729	0.088128	0.021284	0.013427	0.023641	0.012356	0.366501	0.168034	0.315337
2.136	0.082881	0.06529	0.029825	0.01098	0.125946	0.189598	0.037531	0.057775	0.089135	0.021383	0.013422	0.02377	0.012452	0.363516	0.169352	0.318727
2.1365	0.082849	0.064857	0.029856	0.010946	0.126002	0.190712	0.037507	0.057819	0.090141	0.02148	0.013432	0.023904	0.012547	0.360485	0.17067	0.322102
2.137	0.082816	0.06443	0.029886	0.010914	0.126039	0.191792	0.037479	0.057861	0.091145	0.021575	0.013457	0.024042	0.012642	0.35741	0.171987	0.325462
2.1375	0.082781	0.064011	0.029915	0.010886	0.126056	0.192838	0.037448	0.0579	0.092146	0.021669	0.013499	0.024186	0.012737	0.354292	0.173302	0.328805
2.138	0.082746	0.063597	0.029943	0.01086	0.126053	0.193848	0.037412	0.057938	0.093143	0.021761	0.013556	0.024336	0.012831	0.351135	0.174615	0.332129
2.1385	0.082709	0.063191	0.029971	0.010839	0.126029	0.194822	0.037374	0.057975	0.094137	0.021852	0.013629	0.024491	0.012925	0.347939	0.175924	0.335434
2.139	0.082672	0.06279	0.029997	0.01082	0.125986	0.195761	0.037332	0.05801	0.095127	0.021941	0.013718	0.024652	0.013018	0.344708	0.177228	0.338719
2.1395	0.082633	0.062396	0.030023	0.010805	0.125921	0.196663	0.037286	0.058045	0.096112	0.022028	0.013823	0.02482	0.01311	0.341443	0.178527	0.341981
2.14	0.082594	0.062008	0.030048	0.010795	0.125835	0.197529	0.037236	0.058079	0.097091	0.022114	0.013944	0.024993	0.013201	0.338146	0.179819	0.34522
2.1405	0.082554	0.061625	0.030072	0.010788	0.125728	0.198357	0.037184	0.058113	0.098064	0.022197	0.014081	0.025173	0.013292	0.334821	0.181103	0.348433
2.141	0.082513	0.061249	0.030095	0.010786	0.1256	0.199146	0.037127	0.058148	0.099031	0.022279	0.014235	0.02536	0.013382	0.331468	0.182378	0.35162
2.1415	0.082471	0.060878	0.030119	0.010788	0.12545	0.199897	0.037068	0.058182	0.099991	0.022359	0.014404	0.025554	0.013471	0.328089	0.183643	0.35478
2.142	0.082428	0.060513	0.030141	0.010794	0.125278	0.200609	0.037004	0.058217	0.100944	0.022436	0.01459	0.025754	0.013559	0.324687	0.184896	0.357909
2.1425	0.082384	0.060154	0.030163	0.010806	0.125085	0.201281	0.036938	0.058253	0.101887	0.022512	0.014793	0.025962	0.013646	0.321263	0.186136	0.361008
2.143	0.082339	0.0598	0.030185	0.010822	0.124869	0.201912	0.036868	0.05829	0.102822	0.022586	0.015012	0.026178	0.013733	0.31782	0.187362	0.364075
2.1435	0.082294	0.059452	0.030206	0.010844	0.124632	0.202502	0.036795	0.058328	0.103748	0.022657	0.015247	0.026401	0.013818	0.314359	0.188573	0.367107
2.144	0.082247	0.059109	0.030226	0.010871	0.124373	0.20305	0.036719	0.058368	0.104663	0.022727	0.015499	0.026631	0.013902	0.310882	0.189767	0.370105
2.1445	0.0822	0.058771	0.030246	0.010903	0.124091	0.203557	0.03664	0.05841	0.105567	0.022794	0.015767	0.02687	0.013986	0.30739	0.190943	0.373067
2.145	0.082152	0.058439	0.030265	0.010941	0.123787	0.20402	0.036558	0.058453	0.10646	0.022859	0.016053	0.027116	0.014068	0.303886	0.1921	0.375991
2.1455	0.082104	0.058112	0.030284	0.010985	0.12346	0.20444	0.036473	0.058498	0.107341	0.022921	0.016355	0.027371	0.014149	0.300371	0.193237	0.378876
2.146	0.082055	0.05779	0.030303	0.011035	0.12311	0.204816	0.036384	0.058545	0.10821	0.022981	0.016674	0.027634	0.014228	0.296847	0.194354	0.381722
2.1465	0.082007	0.057474	0.03032	0.011092	0.122737	0.205148	0.036293	0.058595	0.109065	0.023039	0.01701	0.027905	0.014307	0.293315	0.195449	0.384525
2.147	0.081958	0.057163	0.030338	0.011155	0.12234	0.205435	0.036199	0.058646	0.109907	0.023094	0.017363	0.028185	0.014385	0.289776	0.196523	0.387285
2.1475	0.081909	0.056858	0.030354	0.011224	0.12192	0.205677	0.036103	0.058701	0.110734	0.023147	0.017734	0.028474	0.014461	0.286232	0.197575	0.389999
2.148	0.081861	0.056557	0.03037	0.0113	0.121477	0.205873	0.036003	0.058758	0.111547	0.023197	0.018121	0.028772	0.014536	0.282686	0.198604	0.392667
2.1485	0.081812	0.056261	0.030386	0.011383	0.121009	0.206024	0.035901	0.058817	0.112344	0.023244	0.018526	0.029079	0.014609	0.279137	0.19961	0.395287
2.149	0.081765	0.055971	0.0304	0.011473	0.120519	0.20613	0.035796	0.05888	0.113126	0.023289	0.018948	0.029395	0.014681	0.275588	0.200593	0.397855
2.1495	0.081717	0.055685	0.030415	0.01157	0.120005	0.206191	0.035689	0.058945	0.113891	0.023331	0.019388	0.029721	0.014752	0.27204	0.201553	0.400372
2.15	0.081671	0.055405	0.030428	0.011675	0.119467	0.206206	0.035579	0.059014	0.114638	0.02337	0.019845	0.030056	0.014821	0.268495	0.202489	0.402834
2.1505	0.081625	0.055129	0.030441	0.011788	0.118907	0.206175	0.035467	0.059085	0.115368	0.023406	0.02032	0.0304	0.014889	0.264954	0.203401	0.40524
2.151	0.081581	0.054858	0.030453	0.011908	0.118324	0.206099	0.035354	0.05916	0.11608	0.02344	0.020813	0.030754	0.014955	0.261418	0.204287	0.40759
2.1515	0.081538	0.054592	0.030464	0.012036	0.117718	0.205978	0.035237	0.059238	0.116772	0.023471	0.021324	0.031118	0.015019	0.257888	0.205149	0.40988
2.152	0.081497	0.054331	0.030474	0.012173	0.117091	0.205811	0.035119	0.059319	0.117445	0.0235	0.021852	0.031492	0.015082	0.254367	0.205986	0.41211
2.1525	0.081459	0.054075	0.030483	0.012317	0.116441	0.205599	0.034999	0.059403	0.118098	0.023525	0.022399	0.031876	0.015143	0.250854	0.206797	0.414278
2.153	0.081423	0.053824	0.030491	0.01247	0.11577	0.205341	0.034878	0.05949	0.11873	0.023548	0.022965	0.03227	0.015203	0.247351	0.207582	0.416382
2.1535	0.08139	0.053579	0.030498	0.012632	0.115078	0.205037	0.034754	0.059581	0.119341	0.023567	0.023549	0.032675	0.01526	0.24386	0.208342	0.41842
2.154	0.08136	0.053338	0.030504	0.012803	0.114366	0.204689	0.034629	0.059675	0.119931	0.023584	0.024151	0.033089	0.015316	0.240381	0.209077	0.420391
2.1545	0.081333	0.053103	0.030509	0.012982	0.113633	0.204295	0.034502	0.059772	0.120498	0.023598	0.024772	0.033515	0.015369	0.236916	0.209786	0.422292
2.155	0.08131	0.052873	0.030512	0.013171	0.112879	0.203858	0.034374	0.059872	0.121043	0.023608	0.025412	0.033951	0.015421	0.233464	0.21047	0.424123
2.1555	0.08129	0.052648	0.030514	0.013368	0.112106	0.203377	0.034244	0.059975	0.121565	0.023615	0.026071	0.034397	0.01547	0.230029	0.211129	0.42588
2.156	0.081275	0.052429	0.030515	0.013576	0.111314	0.202853	0.034112	0.060081	0.122063	0.023619	0.026749	0.034854	0.015518	0.226609	0.211764	0.427562
2.1565	0.081265	0.052214	0.030514	0.013793	0.110502	0.202286	0.033979	0.06019	0.122537	0.02362	0.027446	0.035323	0.015563	0.223206	0.212376	0.429167
2.157	0.081259	0.052006	0.030512	0.014019	0.109671	0.201678	0.033845	0.060302	0.122986	0.023617	0.028163	0.035802	0.015605	0.219822	0.212963	0.430694
2.1575	0.081258	0.051802	0.030509	0.014256	0.108823	0.201028	0.03371	0.060416	0.12341	0.023611	0.028899	0.036292	0.015645	0.216455	0.213527	0.432141
2.158	0.081262	0.051603	0.030503	0.014502	0.107956	0.200337	0.033573	0.060533	0.123807	0.023601	0.029654	0.036793	0.015683	0.213108	0.214068	0.433506
2.1585	0.081272	0.051409	0.030497	0.014759	0.107073	0.199606	0.033434	0.060652	0.124178	0.023588	0.030429	0.037305	0.015717	0.20978	0.214586	0.434788
2.159	0.081287	0.051221	0.030488	0.015026	0.106173	0.198836	0.033295	0.060774	0.124521	0.023571	0.031223	0.037828	0.01575	0.206473	0.215081	0.435985
2.1595	0.081308	0.051037	0.030478	0.015304	0.105257	0.198026	0.033154	0.060898	0.124836	0.023551	0.032037	0.038363	0.015779	0.203187	0.215553	0.437096
2.16	0.081336	0.050858	0.030467	0.015592	0.104325	0.197179	0.033012	0.061024	0.125122	0.023527	0.032871	0.038908	0.015806	0.199923	0.216002	0.438119
2.1605	0.081369	0.050684	0.030453	0.015892	0.103379	0.196294	0.032868	0.061153	0.125379	0.0235	0.033724	0.039465	0.01583	0.196681	0.216428	0.439053
2.161	0.08141	0.050515	0.030438	0.016202	0.102419	0.195372	0.032724	0.061284	0.125607	0.023468	0.034598	0.040033	0.01585	0.193462	0.216831	0.439895
2.1615	0.081457	0.05035	0.030421	0.016523	0.101445	0.194414	0.032578	0.061416	0.125804	0.023434	0.035491	0.040612	0.015868	0.190267	0.21721	0.440645
2.162	0.081511	0.050189	0.030403	0.016855	0.100459	0.19342	0.032431	0.061551	0.125971	0.023395	0.036404	0.041202	0.015883	0.187096	0.217567	0.441301
2.1625	0.081573	0.050033	0.030382	0.017199	0.09946	0.192392	0.032282	0.061688	0.126108	0.023353	0.037338	0.041804	0.015895	0.18395	0.2179	0.441859
2.163	0.081641	0.049882	0.03036	0.017555	0.09845	0.191329	0.032133	0.061827	0.126213	0.023308	0.038291	0.042416	0.015904	0.180829	0.218209	0.442319
2.1635	0.081717	0.049735	0.030337	0.017922	0.097429	0.190232	0.031982	0.061967	0.126288	0.023259	0.039264	0.04304	0.01591	0.177734	0.218494	0.442678
2.164	0.0818	0.049592	0.030311	0.018301	0.096397	0.189101	0.03183	0.06211	0.126331	0.023206	0.040258	0.043675	0.015912	0.174665	0.218755	0.442933
2.1645	0.08189	0.049453	0.030284	0.018693	0.095356	0.187938	0.031677	0.062255	0.126342	0.02315	0.041272	0.044322	0.015912	0.171623	0.218993	0.443082
2.165	0.081988	0.049319	0.030256	0.019096	0.094306	0.186743	0.031522	0.062401	0.126322	0.02309	0.042305	0.044979	0.015908	0.168607	0.219205	0.443124
2.1655	0.082094	0.049188	0.030226	0.019512	0.093246	0.185516	0.031367	0.062549	0.12627	0.023027	0.04336	0.045648	0.0159	0.165618	0.219392	0.443055
2.166	0.082207	0.049062	0.030195	0.019941	0.092179	0.184259	0.03121	0.062699	0.126185	0.022961	0.044434	0.046329	0.01589	0.162657	0.219555	0.442873
2.1665	0.082327	0.048941	0.030163	0.020382	0.091103	0.182971	0.031052	0.06285	0.126068	0.022891	0.045528	0.04702	0.015876	0.159724	0.219691	0.442577
2.167	0.082455	0.048823	0.03013	0.020836	0.090021	0.181653	0.030893	0.063003	0.125918	0.022819	0.046643	0.047723	0.015859	0.15682	0.219801	0.442166
2.1675	0.082591	0.04871	0.030096	0.021303	0.088932	0.180307	0.030732	0.063158	0.125736	0.022743	0.047778	0.048437	0.015838	0.153945	0.219885	0.441639
2.168	0.082733	0.048601	0.03006	0.021784	0.087836	0.178932	0.030571	0.063313	0.125521	0.022664	0.048933	0.049162	0.015814	0.151098	0.219941	0.440995
2.1685	0.082883	0.048497	0.030024	0.022277	0.086735	0.17753	0.030408	0.06347	0.125274	0.022582	0.050108	0.049898	0.015787	0.148282	0.21997	0.440234
2.169	0.08304	0.048396	0.029988	0.022784	0.085629	0.176101	0.030243	0.063628	0.124995	0.022497	0.051304	0.050645	0.015756	0.145495	0.219972	0.439356
2.1695	0.083204	0.0483	0.02995	0.023305	0.084518	0.174645	0.030078	0.063787	0.124684	0.022409	0.052519	0.051404	0.015723	0.142739	0.219946	0.438363
2.17	0.083374	0.048208	0.029912	0.023839	0.083403	0.173162	0.029911	0.063947	0.124341	0.022319	0.053754	0.052173	0.015685	0.140014	0.219892	0.437253
2.1705	0.083552	0.048121	0.029874	0.024387	0.082285	0.171655	0.029743	0.064108	0.123967	0.022226	0.055009	0.052953	0.015645	0.13732	0.219809	0.436027
2.171	0.083736	0.048038	0.029835	0.024949	0.081164	0.170123	0.029573	0.064269	0.123563	0.022131	0.056284	0.053743	0.015601	0.134658	0.219696	0.434686
2.1715	0.083926	0.047959	0.029795	0.025525	0.08004	0.168566	0.029403	0.06443	0.123127	0.022032	0.057579	0.054544	0.015553	0.132029	0.219554	0.433229
2.172	0.084122	0.047885	0.029755	0.026115	0.078914	0.166987	0.029231	0.064592	0.122662	0.021932	0.058894	0.055356	0.015503	0.129432	0.219382	0.431657
2.1725	0.084325	0.047816	0.029715	0.026719	0.077788	0.165385	0.029058	0.064753	0.122167	0.021829	0.060228	0.056178	0.015449	0.126869	0.21918	0.42997
2.173	0.084534	0.047751	0.029675	0.027337	0.07666	0.163762	0.028884	0.064914	0.121642	0.021723	0.061582	0.057011	0.015392	0.12434	0.218946	0.428171
2.1735	0.084748	0.047691	0.029635	0.02797	0.075532	0.162118	0.028709	0.065075	0.121089	0.021616	0.062956	0.057854	0.015332	0.121846	0.21868	0.426259
2.174	0.084967	0.047637	0.029595	0.028617	0.074405	0.160455	0.028532	0.065234	0.120508	0.021506	0.064348	0.058707	0.015269	0.119387	0.218382	0.424236
2.1745	0.085193	0.047587	0.029555	0.029279	0.073278	0.158773	0.028355	0.065393	0.119898	0.021394	0.06576	0.059569	0.015203	0.116964	0.218052	0.422106
2.175	0.085423	0.047543	0.029515	0.029955	0.072153	0.157073	0.028177	0.06555	0.119261	0.021279	0.067191	0.060442	0.015133	0.114578	0.217688	0.419868
2.1755	0.085659	0.047504	0.029476	0.030646	0.071029	0.155356	0.027997	0.065706	0.118598	0.021163	0.068641	0.061324	0.015061	0.112229	0.217291	0.417528
2.176	0.0859	0.047472	0.029437	0.031352	0.069907	0.153624	0.027818	0.065859	0.117908	0.021044	0.07011	0.062215	0.014986	0.109918	0.21686	0.415086
2.1765	0.086147	0.047445	0.029399	0.032072	0.068788	0.151878	0.027637	0.066011	0.117193	0.020924	0.071598	0.063116	0.014909	0.107645	0.216395	0.412546
2.177	0.086399	0.047424	0.029361	0.032807	0.067673	0.150119	0.027456	0.06616	0.116454	0.020801	0.073104	0.064026	0.014828	0.105411	0.215896	0.409912
2.1775	0.086657	0.047409	0.029324	0.033557	0.06656	0.148348	0.027275	0.066306	0.115691	0.020677	0.074628	0.064944	0.014745	0.103216	0.215362	0.407184
2.178	0.086921	0.047402	0.029288	0.034322	0.065452	0.146567	0.027093	0.066449	0.114905	0.020551	0.076171	0.06587	0.01466	0.101061	0.214793	0.404368
2.1785	0.087189	0.047401	0.029253	0.035101	0.064348	0.144775	0.026911	0.066588	0.114097	0.020423	0.077731	0.066805	0.014571	0.098946	0.214189	0.401465
2.179	0.087464	0.047407	0.029219	0.035896	0.063248	0.142975	0.026729	0.066724	0.113269	0.020294	0.07931	0.067747	0.014481	0.096871	0.21355	0.398478
2.1795	0.087744	0.047421	0.029187	0.036705	0.062154	0.141167	0.026547	0.066855	0.11242	0.020163	0.080906	0.068697	0.014388	0.094837	0.212876	0.39541
2.18	0.088029	0.047442	0.029155	0.037529	0.061065	0.139353	0.026365	0.066982	0.111552	0.020031	0.082519	0.069654	0.014293	0.092845	0.212166	0.392265
2.1805	0.08832	0.047471	0.029125	0.038367	0.059982	0.137533	0.026184	0.067104	0.110666	0.019898	0.084149	0.070618	0.014196	0.090895	0.211422	0.389045
2.181	0.088617	0.047508	0.029096	0.039221	0.058905	0.135708	0.026002	0.06722	0.109763	0.019764	0.085796	0.071588	0.014097	0.088986	0.210643	0.385755
2.1815	0.08892	0.047553	0.029068	0.040089	0.057834	0.133879	0.025821	0.067331	0.108842	0.019628	0.087459	0.072564	0.013996	0.08712	0.20983	0.382397
2.182	0.089228	0.047606	0.029042	0.040972	0.05677	0.132048	0.025641	0.067435	0.107906	0.019491	0.089138	0.073546	0.013893	0.085297	0.208982	0.378975
2.1825	0.089542	0.047668	0.029017	0.041869	0.055714	0.130215	0.025461	0.067533	0.106954	0.019354	0.090833	0.074533	0.013788	0.083517	0.208101	0.375493
2.183	0.089861	0.047739	0.028993	0.042781	0.054664	0.128381	0.025281	0.067624	0.105988	0.019215	0.092543	0.075524	0.013681	0.08178	0.207187	0.371953
2.1835	0.090186	0.047818	0.028972	0.043707	0.053623	0.126547	0.025103	0.067709	0.105008	0.019075	0.094268	0.076519	0.013573	0.080087	0.206239	0.368359
2.184	0.090517	0.047907	0.028951	0.044647	0.052589	0.124713	0.024925	0.067785	0.104015	0.018935	0.096007	0.077519	0.013464	0.078439	0.205259	0.364715
2.1845	0.090854	0.048004	0.028933	0.045602	0.051564	0.122882	0.024748	0.067854	0.10301	0.018794	0.09776	0.078521	0.013353	0.076834	0.204246	0.361022
2.185	0.091196	0.048111	0.028915	0.046571	0.050546	0.121053	0.024573	0.067915	0.101994	0.018652	0.099526	0.079526	0.01324	0.075274	0.203201	0.357285
2.1855	0.091543	0.048227	0.0289	0.047554	0.049538	0.119227	0.024398	0.067968	0.100966	0.01851	0.101306	0.080533	0.013126	0.07376	0.202123	0.353506
2.186	0.091896	0.048353	0.028886	0.048551	0.048538	0.117405	0.024225	0.068012	0.099929	0.018367	0.103098	0.081542	0.013011	0.07229	0.201015	0.349688
2.1865	0.092255	0.048488	0.028874	0.049562	0.047547	0.115588	0.024052	0.068048	0.098882	0.018223	0.104901	0.082552	0.012895	0.070865	0.199876	0.345835
2.187	0.092618	0.048633	0.028863	0.050587	0.046565	0.113776	0.023881	0.068074	0.097827	0.018079	0.106716	0.083562	0.012777	0.069487	0.198707	0.341948
2.1875	0.092987	0.048787	0.028854	0.051626	0.045593	0.11197	0.023711	0.068091	0.096763	0.017934	0.108542	0.084571	0.012659	0.068154	0.19751	0.338031
2.188	0.093361	0.048951	0.028846	0.052678	0.04463	0.110171	0.023543	0.068099	0.095693	0.01779	0.110378	0.085581	0.012539	0.066866	0.196284	0.334087
2.1885	0.09374	0.049125	0.02884	0.053743	0.043677	0.108379	0.023375	0.068097	0.094615	0.017644	0.112224	0.086588	0.012419	0.065625	0.195031	0.330118
2.189	0.094124	0.049308	0.028835	0.054822	0.042734	0.106596	0.02321	0.068085	0.093531	0.017499	0.114078	0.087594	0.012297	0.064431	0.193752	0.326126
2.1895	0.094512	0.049502	0.028832	0.055914	0.0418	0.104821	0.023045	0.068063	0.092442	0.017353	0.115941	0.088597	0.012175	0.063282	0.192448	0.322114
2.19	0.094905	0.049705	0.02883	0.057019	0.040876	0.103055	0.022882	0.068032	0.091348	0.017207	0.117812	0.089596	0.012052	0.06218	0.19112	0.318084
2.1905	0.095302	0.049917	0.028829	0.058136	0.039963	0.101299	0.022721	0.067991	0.090249	0.017061	0.11969	0.090592	0.011928	0.061125	0.189769	0.314039
2.191	0.095703	0.05014	0.02883	0.059267	0.03906	0.099553	0.02256	0.067939	0.089147	0.016914	0.121574	0.091583	0.011804	0.060116	0.188395	0.309982
2.1915	0.096108	0.050371	0.028832	0.060409	0.038166	0.097818	0.022402	0.067878	0.088041	0.016768	0.123464	0.092569	0.011679	0.059154	0.186999	0.305913
2.192	0.096517	0.050613	0.028834	0.061564	0.037284	0.096094	0.022244	0.067806	0.086932	0.016621	0.125358	0.093549	0.011554	0.058239	0.185584	0.301835
2.1925	0.096929	0.050864	0.028838	0.062731	0.036411	0.094382	0.022088	0.067724	0.085821	0.016474	0.127258	0.094523	0.011428	0.057371	0.184149	0.297752
2.193	0.097345	0.051124	0.028843	0.06391	0.03555	0.092682	0.021934	0.067632	0.084709	0.016328	0.129161	0.09549	0.011302	0.05655	0.182696	0.293663
2.1935	0.097764	0.051393	0.028849	0.0651	0.034698	0.090994	0.02178	0.067529	0.083595	0.016181	0.131068	0.09645	0.011175	0.055776	0.181226	0.289573
2.194	0.098186	0.051672	0.028855	0.066301	0.033858	0.08932	0.021629	0.067415	0.08248	0.016035	0.132978	0.097402	0.011048	0.05505	0.17974	0.285481
2.1945	0.09861	0.051959	0.028863	0.067513	0.033028	0.087658	0.021478	0.067291	0.081365	0.015888	0.134889	0.098345	0.010921	0.05437	0.178239	0.281391
2.195	0.099037	0.052256	0.028871	0.068735	0.032209	0.08601	0.021329	0.067157	0.080249	0.015742	0.136803	0.099279	0.010794	0.053738	0.176724	0.277304
2.1955	0.099467	0.052561	0.028879	0.069968	0.031401	0.084376	0.021181	0.067012	0.079134	0.015596	0.138717	0.100203	0.010667	0.053153	0.175196	0.273222
2.196	0.099898	0.052874	0.028888	0.07121	0.030604	0.082757	0.021035	0.066857	0.078019	0.015449	0.140631	0.101118	0.010539	0.052615	0.173657	0.269146
2.1965	0.100331	0.053196	0.028898	0.072463	0.029817	0.081153	0.020889	0.066692	0.076906	0.015303	0.142545	0.102022	0.010411	0.052125	0.172106	0.265078
2.197	0.100765	0.053527	0.028908	0.073724	0.029042	0.079564	0.020746	0.066518	0.075794	0.015157	0.144459	0.102915	0.010284	0.051683	0.170546	0.26102
2.1975	0.1012	0.053865	0.028919	0.074994	0.028278	0.07799	0.020603	0.066334	0.074683	0.015012	0.146371	0.103798	0.010156	0.051288	0.168976	0.256972
2.198	0.101636	0.054211	0.02893	0.076273	0.027525	0.076432	0.020462	0.06614	0.073574	0.014866	0.148281	0.104669	0.010029	0.050941	0.167398	0.252936
2.1985	0.102072	0.054565	0.028941	0.07756	0.026782	0.07489	0.020322	0.065938	0.072468	0.01472	0.150189	0.105529	0.009902	0.050642	0.165812	0.248914
2.199	0.102509	0.054926	0.028953	0.078854	0.026051	0.073365	0.020184	0.065728	0.071364	0.014575	0.152095	0.106378	0.009775	0.05039	0.164219	0.244906
2.1995	0.102945	0.055294	0.028964	0.080156	0.025331	0.071857	0.020046	0.065509	0.070263	0.014429	0.153997	0.107214	0.009648	0.050186	0.16262	0.240914
2.2	0.103382	0.055669	0.028976	0.081465	0.024622	0.070366	0.019911	0.065282	0.069166	0.014284	0.155895	0.108039	0.009521	0.05003	0.161016	0.236939
2.2005	0.103817	0.056051	0.028989	0.08278	0.023924	0.068891	0.019776	0.065047	0.068072	0.014139	0.157789	0.108852	0.009395	0.049921	0.159406	0.232983
2.201	0.104251	0.056439	0.029001	0.084101	0.023237	0.067434	0.019643	0.064806	0.066981	0.013994	0.159678	0.109652	0.009269	0.04986	0.157793	0.229045
2.2015	0.104684	0.056834	0.029014	0.085428	0.022561	0.065995	0.019511	0.064557	0.065895	0.013849	0.161562	0.11044	0.009144	0.049847	0.156175	0.225128
2.202	0.105115	0.057234	0.029027	0.08676	0.021896	0.064574	0.01938	0.064303	0.064813	0.013704	0.163439	0.111216	0.009019	0.049881	0.154555	0.221231
2.2025	0.105545	0.057641	0.02904	0.088097	0.021242	0.06317	0.019251	0.064042	0.063736	0.013559	0.16531	0.111979	0.008894	0.049963	0.152931	0.217357
2.203	0.105971	0.058052	0.029053	0.089438	0.0206	0.061785	0.019123	0.063776	0.062664	0.013414	0.167173	0.112729	0.00877	0.050093	0.151305	0.213507
2.2035	0.106395	0.058468	0.029067	0.090782	0.019968	0.060417	0.018997	0.063505	0.061597	0.013269	0.169029	0.113466	0.008646	0.05027	0.149678	0.20968
2.204	0.106817	0.058889	0.029082	0.092129	0.019347	0.059068	0.018872	0.063229	0.060535	0.013124	0.170876	0.11419	0.008522	0.050494	0.148049	0.205878
2.2045	0.107235	0.059315	0.029097	0.093479	0.018737	0.057738	0.018748	0.062948	0.059479	0.012979	0.172715	0.1149	0.0084	0.050766	0.146419	0.202102
2.205	0.10765	0.059745	0.029113	0.09483	0.018138	0.056426	0.018626	0.062664	0.058429	0.012835	0.174544	0.115598	0.008278	0.051085	0.144788	0.198352
2.2055	0.108061	0.060178	0.02913	0.096183	0.017549	0.055132	0.018505	0.062377	0.057386	0.01269	0.176365	0.116281	0.008156	0.051452	0.143158	0.194629
2.206	0.108469	0.060614	0.029147	0.097537	0.016972	0.053858	0.018386	0.062086	0.056349	0.012546	0.178175	0.116951	0.008035	0.051866	0.141529	0.190935
2.2065	0.108873	0.061054	0.029166	0.098891	0.016405	0.052601	0.018268	0.061793	0.055319	0.012401	0.179975	0.117608	0.007915	0.052327	0.1399	0.187268
2.207	0.109273	0.061496	0.029185	0.100245	0.015848	0.051364	0.018152	0.061497	0.054296	0.012257	0.181764	0.118251	0.007795	0.052835	0.138274	0.18363
2.2075	0.109669	0.061941	0.029205	0.101599	0.015303	0.050145	0.018037	0.061199	0.053281	0.012113	0.183541	0.11888	0.007676	0.05339	0.136649	0.180022
2.208	0.11006	0.062387	0.029227	0.102951	0.014768	0.048945	0.017924	0.0609	0.052273	0.011969	0.185307	0.119496	0.007558	0.053992	0.135027	0.176444
2.2085	0.110447	0.062835	0.029249	0.104301	0.014243	0.047764	0.017812	0.060599	0.051274	0.011825	0.187061	0.120098	0.00744	0.054641	0.133409	0.172897
2.209	0.110828	0.063285	0.029273	0.105649	0.013729	0.046602	0.017702	0.060297	0.050282	0.011681	0.188803	0.120687	0.007323	0.055336	0.131794	0.16938
2.2095	0.111206	0.063735	0.029298	0.106995	0.013225	0.045458	0.017593	0.059995	0.049298	0.011538	0.190531	0.121262	0.007208	0.056078	0.130183	0.165895
2.21	0.111578	0.064185	0.029325	0.108337	0.012731	0.044333	0.017486	0.059693	0.048323	0.011395	0.192247	0.121823	0.007092	0.056867	0.128576	0.162443
2.2105	0.111945	0.064635	0.029352	0.109675	0.012247	0.043226	0.017381	0.05939	0.047357	0.011252	0.193949	0.12237	0.006978	0.057702	0.126974	0.159023
2.211	0.112306	0.065086	0.029381	0.111009	0.011774	0.042138	0.017277	0.059088	0.046399	0.01111	0.195637	0.122903	0.006865	0.058582	0.125377	0.155636
2.2115	0.112662	0.065535	0.029412	0.112337	0.01131	0.041069	0.017175	0.058786	0.04545	0.010968	0.197311	0.123422	0.006752	0.059509	0.123785	0.152282
2.212	0.113012	0.065984	0.029444	0.11366	0.010857	0.040018	0.017074	0.058485	0.044511	0.010826	0.198969	0.123927	0.006641	0.060482	0.122199	0.148963
2.2125	0.113356	0.066431	0.029477	0.114976	0.010413	0.038985	0.016974	0.058186	0.04358	0.010685	0.200612	0.124417	0.00653	0.061499	0.120619	0.145678
2.213	0.113693	0.066877	0.029512	0.116285	0.009979	0.03797	0.016877	0.057888	0.042659	0.010544	0.202239	0.124893	0.006421	0.062563	0.119045	0.142427
2.2135	0.114023	0.067321	0.029549	0.117585	0.009555	0.036974	0.016781	0.057591	0.041747	0.010404	0.203849	0.125354	0.006312	0.063671	0.117477	0.139212
2.214	0.114347	0.067762	0.029586	0.118878	0.00914	0.035995	0.016686	0.057297	0.040845	0.010264	0.205442	0.1258	0.006205	0.064824	0.115916	0.136032
2.2145	0.114662	0.068201	0.029626	0.120161	0.008735	0.035034	0.016593	0.057004	0.039953	0.010125	0.207016	0.126231	0.006098	0.066022	0.114361	0.132888
2.215	0.11497	0.068636	0.029666	0.121434	0.00834	0.034091	0.016501	0.056714	0.039071	0.009987	0.208572	0.126647	0.005993	0.067264	0.112813	0.12978
2.2155	0.115269	0.069069	0.029709	0.122696	0.007954	0.033165	0.016411	0.056426	0.038198	0.009849	0.210108	0.127047	0.005889	0.068551	0.111273	0.126708
2.216	0.11556	0.069497	0.029752	0.123947	0.007577	0.032257	0.016323	0.056141	0.037336	0.009712	0.211623	0.127432	0.005786	0.069881	0.109739	0.123673
2.2165	0.115841	0.069921	0.029797	0.125185	0.007209	0.031366	0.016236	0.055859	0.036484	0.009576	0.213118	0.127801	0.005684	0.071254	0.108212	0.120675
2.217	0.116114	0.070341	0.029843	0.12641	0.006851	0.030492	0.01615	0.055579	0.035642	0.00944	0.21459	0.128153	0.005583	0.072671	0.106693	0.117714
2.2175	0.116377	0.070756	0.02989	0.127622	0.006501	0.029635	0.016066	0.055303	0.034811	0.009305	0.216041	0.128488	0.005484	0.07413	0.105182	0.114791
2.218	0.116629	0.071165	0.029939	0.12882	0.006161	0.028795	0.015983	0.05503	0.03399	0.009171	0.217469	0.128807	0.005386	0.075631	0.103678	0.111905
2.2185	0.116872	0.071569	0.029988	0.130002	0.005829	0.027971	0.015902	0.054761	0.03318	0.009038	0.218873	0.129108	0.005288	0.077175	0.102182	0.109056
2.219	0.117103	0.071966	0.030039	0.131168	0.005506	0.027164	0.015822	0.054495	0.03238	0.008905	0.220253	0.129392	0.005193	0.078759	0.100694	0.106246
2.2195	0.117324	0.072357	0.030091	0.132318	0.005192	0.026373	0.015744	0.054232	0.031591	0.008774	0.221608	0.129657	0.005098	0.080385	0.099214	0.103473
2.22	0.117533	0.072741	0.030143	0.13345	0.004886	0.025598	0.015667	0.053974	0.030813	0.008644	0.222937	0.129904	0.005005	0.082052	0.097742	0.100739
2.2205	0.11773	0.073118	0.030197	0.134565	0.004589	0.024839	0.015591	0.053719	0.030045	0.008514	0.22424	0.130133	0.004913	0.083758	0.096278	0.098043
2.221	0.117915	0.073487	0.030251	0.13566	0.0043	0.024096	0.015516	0.053468	0.029289	0.008386	0.225517	0.130342	0.004822	0.085504	0.094822	0.095385
2.2215	0.118087	0.073849	0.030305	0.136736	0.004019	0.023368	0.015443	0.053222	0.028543	0.008259	0.226766	0.130532	0.004732	0.087289	0.093375	0.092766
2.222	0.118247	0.074202	0.03036	0.137793	0.003747	0.022656	0.015371	0.052979	0.027808	0.008133	0.227987	0.130702	0.004644	0.089112	0.091935	0.090185
2.2225	0.118395	0.074546	0.030416	0.138828	0.003482	0.021959	0.015301	0.052741	0.027084	0.008008	0.22918	0.130851	0.004558	0.090974	0.090504	0.087642
2.223	0.118529	0.074881	0.030471	0.139842	0.003226	0.021277	0.015232	0.052506	0.02637	0.007884	0.230343	0.13098	0.004472	0.092872	0.089081	0.085139
2.2235	0.118651	0.075206	0.030527	0.140834	0.002978	0.020609	0.015163	0.052276	0.025668	0.007761	0.231477	0.131089	0.004388	0.094808	0.087667	0.082673
2.224	0.118759	0.075522	0.030583	0.141802	0.002737	0.019957	0.015097	0.052051	0.024976	0.007639	0.23258	0.131176	0.004305	0.096779	0.08626	0.080247
2.2245	0.118855	0.075827	0.030639	0.142747	0.002504	0.019319	0.015031	0.05183	0.024295	0.007519	0.233651	0.131242	0.004224	0.098786	0.084862	0.077859
2.225	0.118937	0.076121	0.030694	0.143667	0.002278	0.018696	0.014966	0.051613	0.023626	0.0074	0.234691	0.131286	0.004144	0.100828	0.083473	0.075509
2.2255	0.119005	0.076404	0.03075	0.144562	0.002061	0.018087	0.014903	0.051401	0.022967	0.007282	0.235697	0.131308	0.004065	0.102904	0.082092	0.073198
2.226	0.119059	0.076676	0.030805	0.145431	0.00185	0.017492	0.01484	0.051194	0.022318	0.007165	0.236671	0.131308	0.003987	0.105013	0.080719	0.070925
2.2265	0.1191	0.076936	0.030859	0.146274	0.001647	0.01691	0.014779	0.050991	0.021681	0.00705	0.237609	0.131286	0.003911	0.107155	0.079355	0.068691
2.227	0.119127	0.077184	0.030912	0.147091	0.001451	0.016343	0.014718	0.050793	0.021054	0.006936	0.238513	0.131241	0.003836	0.109329	0.078	0.066495
2.2275	0.119139	0.07742	0.030965	0.147882	0.001262	0.015789	0.014659	0.0506	0.020438	0.006823	0.23938	0.131173	0.003763	0.111534	0.076654	0.064337
2.228	0.119138	0.077643	0.031018	0.148646	0.001081	0.015249	0.0146	0.050411	0.019833	0.006712	0.240211	0.131083	0.003691	0.11377	0.075316	0.062217
2.2285	0.119122	0.077852	0.031069	0.149382	0.000906	0.014722	0.014543	0.050228	0.019238	0.006602	0.241003	0.13097	0.00362	0.116035	0.073987	0.060134
2.229	0.119091	0.078049	0.031119	0.150091	0.000738	0.014208	0.014486	0.050049	0.018654	0.006493	0.241757	0.130835	0.003551	0.118329	0.072667	0.05809
2.2295	0.119045	0.078231	0.031168	0.150772	0.000577	0.013707	0.014431	0.049875	0.018081	0.006386	0.242471	0.130677	0.003483	0.120651	0.071356	0.056083
2.23	0.118985	0.0784	0.031216	0.151425	0.000423	0.013219	0.014376	0.049705	0.017517	0.00628	0.243144	0.130497	0.003416	0.122999	0.070054	0.054113
2.2305	0.118909	0.078555	0.031263	0.15205	0.000275	0.012743	0.014321	0.04954	0.016965	0.006175	0.243776	0.130294	0.003351	0.125374	0.068761	0.052181
2.231	0.118817	0.078694	0.031309	0.152646	0.000134	0.01228	0.014268	0.049381	0.016422	0.006072	0.244365	0.130069	0.003286	0.127773	0.067477	0.050286
2.2315	0.11871	0.078819	0.031353	0.153212	0	0.01183	0.014215	0.049225	0.01589	0.005971	0.244911	0.129821	0.003224	0.130196	0.066203	0.048427
2.232	0.118587	0.078929	0.031396	0.153749	0	0.011391	0.014163	0.049074	0.015368	0.00587	0.245412	0.12955	0.003162	0.132641	0.064938	0.046605
2.2325	0.118449	0.079023	0.031437	0.154255	0	0.010965	0.014111	0.048928	0.014856	0.005771	0.245869	0.129257	0.003102	0.135109	0.063683	0.044819
2.233	0.118294	0.079102	0.031477	0.154731	0	0.010551	0.01406	0.048786	0.014354	0.005674	0.246279	0.128941	0.003043	0.137597	0.062437	0.04307
2.2335	0.118122	0.079165	0.031515	0.155177	0	0.010148	0.014009	0.048648	0.013862	0.005578	0.246642	0.128602	0.002985	0.140104	0.061201	0.041356
2.234	0.117934	0.079212	0.031552	0.155591	0	0.009757	0.013959	0.048515	0.01338	0.005484	0.246957	0.128242	0.002929	0.142629	0.059975	0.039677
2.2345	0.117729	0.079243	0.031587	0.155974	0	0.009377	0.013909	0.048385	0.012907	0.00539	0.247225	0.127859	0.002874	0.145171	0.05876	0.038034
2.235	0.117507	0.079258	0.03162	0.156326	0	0.009009	0.013858	0.048259	0.012445	0.005299	0.247445	0.127455	0.00282	0.147729	0.057554	0.036426
2.2355	0.117269	0.079256	0.031652	0.156646	0	0.008651	0.013809	0.048137	0.011991	0.005208	0.247617	0.12703	0.002767	0.150302	0.056358	0.034852
2.236	0.117014	0.079238	0.031682	0.156934	0	0.008305	0.013759	0.048019	0.011548	0.005119	0.247741	0.126583	0.002716	0.152887	0.055173	0.033313
2.2365	0.116742	0.079203	0.03171	0.15719	0	0.00797	0.013709	0.047903	0.011114	0.005032	0.247819	0.126116	0.002666	0.155484	0.053999	0.031807
2.237	0.116453	0.079152	0.031736	0.157413	0	0.007645	0.013659	0.047791	0.010689	0.004946	0.247849	0.125629	0.002617	0.158091	0.052836	0.030335
2.2375	0.116148	0.079084	0.03176	0.157604	0	0.00733	0.013609	0.047682	0.010273	0.004861	0.247832	0.125122	0.002569	0.160707	0.051683	0.028897
2.238	0.115827	0.078999	0.031783	0.157761	0	0.007026	0.013559	0.047575	0.009867	0.004778	0.247768	0.124595	0.002522	0.16333	0.050542	0.027491
2.2385	0.115489	0.078897	0.031803	0.157886	0	0.006733	0.013509	0.047471	0.009469	0.004696	0.247658	0.124049	0.002477	0.165958	0.049413	0.026118
2.239	0.115135	0.078779	0.031821	0.157977	0	0.006449	0.013459	0.047369	0.009081	0.004615	0.247501	0.123485	0.002432	0.168591	0.048295	0.024778
2.2395	0.114764	0.078644	0.031837	0.158034	0	0.006175	0.013408	0.047269	0.008701	0.004536	0.247299	0.122903	0.002389	0.171226	0.047188	0.023469
2.24	0.114378	0.078493	0.031851	0.158058	0	0.005911	0.013358	0.047171	0.00833	0.004458	0.247053	0.122304	0.002347	0.173862	0.046094	0.022191
2.2405	0.113975	0.078326	0.031863	0.158047	0	0.005656	0.013306	0.047075	0.007968	0.004381	0.246762	0.121689	0.002306	0.176497	0.045012	0.020945
2.241	0.113557	0.078142	0.031872	0.158002	0	0.005411	0.013255	0.04698	0.007615	0.004306	0.246428	0.121057	0.002266	0.179129	0.043942	0.01973
2.2415	0.113123	0.077943	0.031879	0.157921	0	0.005176	0.013203	0.046886	0.00727	0.004232	0.246051	0.120409	0.002227	0.181756	0.042885	0.018544
2.242	0.112674	0.077729	0.031883	0.157805	0	0.004949	0.013151	0.046793	0.006933	0.00416	0.245634	0.119746	0.00219	0.184378	0.04184	0.017389
2.2425	0.112211	0.077499	0.031885	0.157654	0	0.004732	0.013099	0.0467	0.006605	0.004088	0.245176	0.119068	0.002153	0.186991	0.040808	0.016264
2.243	0.111733	0.077254	0.031884	0.157467	0	0.004523	0.013046	0.046608	0.006285	0.004018	0.244679	0.118376	0.002117	0.189595	0.039788	0.015168
2.2435	0.111241	0.076995	0.031881	0.157244	0	0.004323	0.012993	0.046516	0.005973	0.00395	0.244144	0.117671	0.002082	0.192187	0.038781	0.0141
2.244	0.110735	0.076721	0.031875	0.156986	0	0.004132	0.012939	0.046424	0.005669	0.003882	0.243571	0.116952	0.002049	0.194765	0.037787	0.013061
2.2445	0.110216	0.076433	0.031866	0.156692	0	0.003949	0.012885	0.046332	0.005373	0.003816	0.242962	0.11622	0.002016	0.197328	0.036807	0.01205
2.245	0.109684	0.076131	0.031854	0.156363	0	0.003775	0.01283	0.046238	0.005084	0.003751	0.242317	0.115477	0.001984	0.199874	0.035839	0.011067
2.2455	0.109139	0.075815	0.031839	0.155998	0	0.003608	0.012775	0.046144	0.004804	0.003687	0.241637	0.114722	0.001953	0.2024	0.034884	0.010111
2.246	0.108583	0.075486	0.031821	0.155599	0	0.00345	0.01272	0.046049	0.004531	0.003624	0.240924	0.113957	0.001923	0.204904	0.033943	0.009182
2.2465	0.108014	0.075145	0.0318	0.155166	0	0.0033	0.012665	0.045952	0.004266	0.003563	0.240177	0.113181	0.001894	0.207386	0.033015	0.008279
2.247	0.107434	0.074792	0.031775	0.154699	0	0.003157	0.012609	0.045854	0.004008	0.003502	0.2394	0.112395	0.001866	0.209843	0.032101	0.007402
2.2475	0.106843	0.074427	0.031748	0.1542	0	0.003022	0.012552	0.045753	0.003757	0.003443	0.238592	0.111601	0.001838	0.212273	0.0312	0.006551
2.248	0.106242	0.074051	0.031717	0.153668	0	0.002895	0.012496	0.045651	0.003513	0.003385	0.237756	0.110798	0.001812	0.214675	0.030312	0.005725
2.2485	0.105631	0.073665	0.031683	0.153104	0	0.002775	0.012439	0.045546	0.003277	0.003328	0.236893	0.109987	0.001786	0.217047	0.029438	0.004924
2.249	0.10501	0.073268	0.031647	0.152508	0	0.002662	0.012382	0.045439	0.003047	0.003272	0.236003	0.109169	0.001761	0.219386	0.028577	0.004148
2.2495	0.104381	0.072862	0.031607	0.151881	0	0.002557	0.012324	0.045329	0.002825	0.003217	0.23509	0.108345	0.001737	0.221693	0.02773	0.003395
2.25	0.103743	0.072447	0.031563	0.151224	0	0.002458	0.012267	0.045216	0.002609	0.003164	0.234154	0.107515	0.001713	0.223963	0.026897	0.002667
2.2505	0.103097	0.072022	0.031517	0.150537	0	0.002367	0.012209	0.045099	0.0024	0.003111	0.233195	0.106681	0.001691	0.226197	0.026077	0.001961
2.251	0.102444	0.07159	0.031468	0.149821	0	0.002282	0.012151	0.04498	0.002198	0.00306	0.232216	0.105843	0.001669	0.228392	0.02527	0.001279
2.2515	0.101784	0.07115	0.031416	0.149077	0	0.002204	0.012094	0.044857	0.002002	0.003009	0.231218	0.105001	0.001647	0.230547	0.024477	0.000618
2.252	0.101116	0.070702	0.031362	0.148304	0	0.002132	0.012036	0.04473	0.001812	0.00296	0.230201	0.104156	0.001627	0.232659	0.023698	0
2.2525	0.100442	0.070247	0.031305	0.147505	0	0.002066	0.011978	0.0446	0.001629	0.002912	0.229167	0.103309	0.001607	0.234729	0.022932	0
2.253	0.099762	0.069786	0.031245	0.146679	0	0.002007	0.01192	0.044466	0.001451	0.002865	0.228116	0.10246	0.001588	0.236754	0.02218	0
2.2535	0.099076	0.069318	0.031184	0.145827	0	0.001954	0.011863	0.044329	0.00128	0.002818	0.22705	0.101611	0.001569	0.238733	0.021441	0
2.254	0.098384	0.068844	0.03112	0.14495	0	0.001908	0.011805	0.044189	0.001115	0.002773	0.225969	0.100761	0.001551	0.240665	0.020715	0
2.2545	0.097686	0.068366	0.031055	0.144049	0	0.001867	0.011748	0.044046	0.000956	0.002729	0.224875	0.099912	0.001534	0.24255	0.020003	0
2.255	0.096984	0.067882	0.030987	0.143124	3.7e-05	0.001831	0.011691	0.043899	0.000803	0.002686	0.223768	0.099064	0.001517	0.244387	0.019304	0
2.2555	0.096276	0.067393	0.030919	0.142176	0.000169	0.001802	0.011635	0.04375	0.000655	0.002643	0.222648	0.098217	0.001501	0.246176	0.018618	0
2.256	0.095564	0.066901	0.030849	0.141205	0.000306	0.001778	0.011578	0.043598	0.000513	0.002602	0.221518	0.097372	0.001486	0.247917	0.017946	0
2.2565	0.094847	0.066405	0.030777	0.140213	0.000449	0.00176	0.011522	0.043444	0.000376	0.002562	0.220377	0.096529	0.001471	0.24961	0.017287	0
2.257	0.094125	0.065905	0.030705	0.1392	0.000599	0.001746	0.011467	0.043288	0.000244	0.002523	0.219227	0.09569	0.001457	0.251255	0.01664	0
2.2575	0.0934	0.065402	0.030632	0.138166	0.000755	0.001739	0.011411	0.04313	0.000118	0.002484	0.218068	0.094854	0.001443	0.252853	0.016007	0
2.258	0.092671	0.064897	0.030558	0.137113	0.000917	0.001736	0.011357	0.042971	0	0.002447	0.216902	0.094022	0.00143	0.254403	0.015386	0
2.2585	0.091938	0.064389	0.030483	0.13604	0.001085	0.001738	0.011303	0.042811	0	0.00241	0.215728	0.093195	0.001418	0.255905	0.014779	0
2.259	0.091201	0.06388	0.030408	0.13495	0.001261	0.001745	0.011249	0.042649	0	0.002374	0.214547	0.092372	0.001405	0.25736	0.014184	0
2.2595	0.090462	0.063369	0.030333	0.133841	0.001442	0.001757	0.011196	0.042488	0	0.00234	0.213361	0.091555	0.001394	0.258767	0.013601	0
2.26	0.08972	0.062856	0.030258	0.132715	0.001631	0.001774	0.011143	0.042325	0	0.002306	0.212169	0.090744	0.001383	0.260128	0.013031	0
2.2605	0.088975	0.062343	0.030182	0.131572	0.001827	0.001795	0.011091	0.042163	0	0.002273	0.210972	0.089939	0.001372	0.261442	0.012474	0
2.261	0.088227	0.06183	0.030107	0.130414	0.002029	0.001821	0.01104	0.042001	0	0.00224	0.20977	0.089141	0.001362	0.262711	0.011929	0
2.2615	0.087478	0.061316	0.030032	0.129239	0.002239	0.001851	0.010989	0.041839	0	0.002209	0.208565	0.088349	0.001353	0.263933	0.011396	0
2.262	0.086727	0.060802	0.029957	0.12805	0.002456	0.001886	0.010939	0.041678	0	0.002179	0.207356	0.087565	0.001344	0.26511	0.010875	0
2.2625	0.085974	0.060289	0.029883	0.126846	0.002681	0.001925	0.01089	0.041518	0	0.002149	0.206143	0.086788	0.001335	0.266241	0.010367	0
2.263	0.085219	0.059777	0.029809	0.125629	0.002913	0.001968	0.010841	0.041359	0	0.00212	0.204927	0.086019	0.001327	0.267328	0.00987	0
2.2635	0.084464	0.059266	0.029736	0.124398	0.003152	0.002015	0.010793	0.041201	0	0.002092	0.203709	0.085258	0.00132	0.268369	0.009385	0
2.264	0.083708	0.058756	0.029663	0.123156	0.0034	0.002066	0.010746	0.041045	0	0.002064	0.202487	0.084506	0.001313	0.269367	0.008912	0
2.2645	0.082951	0.058247	0.029591	0.121902	0.003655	0.002121	0.0107	0.04089	0	0.002038	0.201263	0.083762	0.001306	0.27032	0.00845	0
2.265	0.082195	0.057741	0.029521	0.120637	0.003918	0.002179	0.010654	0.040737	0	0.002012	0.200037	0.083027	0.0013	0.271229	0.008	0
2.2655	0.081438	0.057237	0.029451	0.119362	0.00419	0.002241	0.010609	0.040586	0	0.001987	0.198808	0.082301	0.001294	0.272095	0.007561	0
2.266	0.080681	0.056736	0.029382	0.118079	0.00447	0.002307	0.010564	0.040438	0	0.001963	0.197577	0.081584	0.001289	0.272919	0.007133	0
2.2665	0.079924	0.056237	0.029314	0.116787	0.004759	0.002377	0.010521	0.040292	0	0.001939	0.196343	0.080877	0.001284	0.2737	0.006716	0
2.267	0.079169	0.055742	0.029248	0.115489	0.005056	0.00245	0.010478	0.040148	0	0.001916	0.195108	0.080179	0.00128	0.274439	0.00631	0
2.2675	0.078414	0.05525	0.029183	0.114184	0.005362	0.002526	0.010436	0.040008	0	0.001894	0.19387	0.079491	0.001276	0.275137	0.005916	0
2.268	0.07766	0.054761	0.029119	0.112875	0.005677	0.002605	0.010395	0.03987	0	0.001873	0.192631	0.078812	0.001273	0.275793	0.005531	0
2.2685	0.076907	0.054276	0.029056	0.11156	0.006001	0.002688	0.010354	0.039736	0	0.001852	0.19139	0.078143	0.00127	0.27641	0.005158	0
2.269	0.076156	0.053796	0.028995	0.110243	0.006335	0.002773	0.010314	0.039605	0	0.001832	0.190146	0.077484	0.001267	0.276986	0.004794	0
2.2695	0.075406	0.05332	0.028935	0.108922	0.006677	0.002862	0.010275	0.039478	0	0.001812	0.188901	0.076835	0.001265	0.277522	0.004441	0
2.27	0.074658	0.052848	0.028876	0.107599	0.00703	0.002953	0.010237	0.039354	0	0.001794	0.187653	0.076196	0.001263	0.27802	0.004099	0
2.2705	0.073912	0.052381	0.028819	0.106275	0.007392	0.003047	0.0102	0.039235	0	0.001775	0.186402	0.075567	0.001262	0.278479	0.003766	0
2.271	0.073168	0.05192	0.028764	0.104951	0.007764	0.003144	0.010163	0.039119	0	0.001758	0.185149	0.074948	0.001261	0.2789	0.003443	0
2.2715	0.072425	0.051463	0.02871	0.103627	0.008146	0.003244	0.010127	0.039008	0	0.001741	0.183894	0.074339	0.00126	0.279285	0.00313	0
2.272	0.071685	0.051012	0.028657	0.102303	0.008539	0.003346	0.010091	0.038901	0	0.001724	0.182636	0.07374	0.00126	0.279632	0.002826	0
2.2725	0.070947	0.050567	0.028606	0.100981	0.008942	0.003451	0.010057	0.038798	0	0.001709	0.181374	0.07315	0.001261	0.279943	0.002532	0
2.273	0.070211	0.050127	0.028556	0.09966	0.009355	0.003558	0.010023	0.0387	0	0.001693	0.180109	0.072571	0.001261	0.280219	0.002247	0
2.2735	0.069478	0.049694	0.028507	0.098342	0.009779	0.003667	0.009989	0.038607	0	0.001679	0.178841	0.072001	0.001263	0.28046	0.001972	0
2.274	0.068748	0.049266	0.02846	0.097027	0.010213	0.003778	0.009957	0.038519	0	0.001664	0.177569	0.071441	0.001264	0.280665	0.001705	0
2.2745	0.068019	0.048845	0.028414	0.095716	0.010659	0.003892	0.009925	0.038436	0	0.001651	0.176294	0.07089	0.001266	0.280837	0.001447	0
